F1Score,loss,precision,recall,val_F1Score,val_loss,val_precision,val_recall,learning_rate
0.49074065685272217,31687.759765625,0.5698924660682678,0.43089431524276733,0.7906975746154785,2813.384765625,0.7083333134651184,0.8947368264198303,9.999999747378752e-05
0.49302318692207336,9015.57421875,0.5760869383811951,0.43089431524276733,0.5945945382118225,2375.399169921875,0.6111111044883728,0.5789473652839661,9.999999747378752e-05
0.4600938558578491,6567.9189453125,0.5444444417953491,0.3983739912509918,0.17391300201416016,3775.178955078125,0.5,0.10526315867900848,9.999999747378752e-05
0.509433925151825,8215.619140625,0.6067415475845337,0.4390243887901306,0.7659573554992676,4601.220703125,0.6428571343421936,0.9473684430122375,9.999999747378752e-05
0.5137614011764526,6101.009765625,0.5894736647605896,0.45528456568717957,0.782608687877655,2885.2529296875,0.6666666865348816,0.9473684430122375,9.999999747378752e-05
0.5023695826530457,7974.1103515625,0.6022727489471436,0.43089431524276733,0.7916666269302368,6875.984375,0.6551724076271057,1.0,9.999999747378752e-05
0.5726871490478516,10028.74609375,0.625,0.5284552574157715,0.7441859841346741,2244.15185546875,0.6666666865348816,0.8421052694320679,9.999999747378752e-05
0.5497629642486572,7842.08642578125,0.6590909361839294,0.47154471278190613,0.7916666269302368,7703.90185546875,0.6551724076271057,1.0,9.999999747378752e-05
0.4886876940727234,11491.05859375,0.5510203838348389,0.4390243887901306,0.09999998658895493,8285.44921875,1.0,0.05263157933950424,9.999999747378752e-05
0.5607476830482483,5514.78369140625,0.6593406796455383,0.4878048896789551,0.23076915740966797,2618.292724609375,0.4285714328289032,0.15789473056793213,9.999999747378752e-05
0.44651156663894653,5664.4794921875,0.52173912525177,0.39024388790130615,0.09999998658895493,7070.6455078125,1.0,0.05263157933950424,9.999999747378752e-05
0.5046728253364563,5966.03857421875,0.593406617641449,0.4390243887901306,0.782608687877655,3481.638916015625,0.6666666865348816,0.9473684430122375,9.999999747378752e-05
0.5155555009841919,16923.6015625,0.5686274766921997,0.47154471278190613,0.23076915740966797,2745.096923828125,0.4285714328289032,0.15789473056793213,9.999999747378752e-05
0.4271843731403351,7092.49169921875,0.5301204919815063,0.35772356390953064,0.6666666269302368,1779.2322998046875,0.6499999761581421,0.6842105388641357,9.999999747378752e-05
0.5765765309333801,3608.533935546875,0.6464646458625793,0.5203251838684082,0.0,18393.955078125,0.0,0.0,9.999999747378752e-05
0.504761815071106,8327.8798828125,0.6091954112052917,0.43089431524276733,0.7555555105209351,2032.23779296875,0.6538461446762085,0.8947368264198303,9.999999747378752e-05
0.5495495796203613,3601.212890625,0.6161616444587708,0.49593496322631836,0.4374999403953552,1811.243896484375,0.5384615659713745,0.3684210479259491,9.999999747378752e-05
0.5454545021057129,6669.79052734375,0.6145833134651184,0.4796747863292694,0.7555555105209351,2089.771728515625,0.6538461446762085,0.8947368264198303,9.999999747378752e-05
0.5753424167633057,4207.751953125,0.65625,0.5121951103210449,0.0,14279.8115234375,0.0,0.0,9.999999747378752e-05
0.5370369553565979,5703.18505859375,0.6236559152603149,0.47154471278190613,0.727272629737854,1967.4937744140625,0.6399999856948853,0.8421052694320679,9.999999747378752e-05
0.5092591643333435,5232.4326171875,0.5913978219032288,0.4471544623374939,0.09090906381607056,4009.33349609375,0.3333333432674408,0.05263157933950424,9.999999747378752e-05
0.5610859394073486,4266.458984375,0.6326530575752258,0.5040650367736816,0.09090906381607056,3529.7890625,0.3333333432674408,0.05263157933950424,9.999999747378752e-05
0.5633801817893982,3353.415771484375,0.6666666865348816,0.4878048896789551,0.7916666269302368,4703.69140625,0.6551724076271057,1.0,9.999999747378752e-05
0.522935688495636,4086.739501953125,0.6000000238418579,0.46341463923454285,0.782608687877655,3695.478759765625,0.6666666865348816,0.9473684430122375,9.999999747378752e-05
0.5596329569816589,10572.2861328125,0.6421052813529968,0.49593496322631836,0.7916666269302368,7229.93359375,0.6551724076271057,1.0,9.999999747378752e-05
0.5520361661911011,6583.9453125,0.6224489808082581,0.49593496322631836,0.727272629737854,1852.286376953125,0.6399999856948853,0.8421052694320679,9.999999747378752e-05
0.5023254752159119,7280.63037109375,0.5824176073074341,0.43089431524276733,0.17391300201416016,3340.1650390625,0.5,0.10526315867900848,9.999999747378752e-05
0.546296238899231,4574.69091796875,0.6344085931777954,0.4796747863292694,0.6976743340492249,1777.6368408203125,0.625,0.7894737124443054,9.999999747378752e-05
0.5161289572715759,6324.212890625,0.5957446694374084,0.45528456568717957,0.8085105419158936,4384.34716796875,0.6785714030265808,1.0,9.999999747378752e-05
0.5688073039054871,4484.61328125,0.6526315808296204,0.5040650367736816,0.09999998658895493,6208.46240234375,1.0,0.05263157933950424,9.999999747378752e-05
0.5277776718139648,3898.5712890625,0.6129032373428345,0.46341463923454285,0.5405405163764954,1789.518798828125,0.5555555820465088,0.5263158082962036,9.999999747378752e-05
0.4814814329147339,5115.0205078125,0.5591397881507874,0.42276424169540405,0.7555555105209351,2524.6875,0.6538461446762085,0.8947368264198303,9.999999747378752e-05
0.4666666090488434,4074.365966796875,0.5632184147834778,0.3983739912509918,0.7555555105209351,2346.81982421875,0.6538461446762085,0.8947368264198303,9.999999747378752e-05
0.5205478668212891,7132.9013671875,0.59375,0.46341463923454285,0.5,1749.25,0.529411792755127,0.4736842215061188,9.999999747378752e-05
0.5046728253364563,3435.657470703125,0.593406617641449,0.4390243887901306,0.0952380821108818,4439.892578125,0.5,0.05263157933950424,9.999999747378752e-05
0.49541279673576355,3460.9130859375,0.5744680762290955,0.4390243887901306,0.3076922595500946,2207.9052734375,0.5714285969734192,0.21052631735801697,9.999999747378752e-05
0.5514017939567566,3780.558349609375,0.6483516693115234,0.4796747863292694,0.782608687877655,3656.466796875,0.6666666865348816,0.9473684430122375,9.999999747378752e-05
0.5446428060531616,3946.17431640625,0.6161616444587708,0.49593496322631836,0.615384578704834,1760.3983154296875,0.6000000238418579,0.6315789222717285,9.999999747378752e-05
0.49765247106552124,4307.658203125,0.5888888835906982,0.43089431524276733,0.7555555105209351,2704.305419921875,0.6538461446762085,0.8947368264198303,9.999999747378752e-05
0.4744185209274292,2970.656494140625,0.554347813129425,0.4146341383457184,0.24999995529651642,3027.632568359375,0.6000000238418579,0.15789473056793213,9.999999747378752e-05
0.5370369553565979,3051.95458984375,0.6236559152603149,0.47154471278190613,0.8085105419158936,4412.36376953125,0.6785714030265808,1.0,9.999999747378752e-05
0.5209301114082336,4173.18408203125,0.6086956262588501,0.45528456568717957,0.7555555105209351,2101.57958984375,0.6538461446762085,0.8947368264198303,9.999999747378752e-05
0.5829595327377319,2603.6650390625,0.6499999761581421,0.5284552574157715,0.2399999499320984,2101.9384765625,0.5,0.15789473056793213,9.999999747378752e-05
0.4476189613342285,5877.8359375,0.540229856967926,0.38211381435394287,0.09999998658895493,8349.150390625,1.0,0.05263157933950424,9.999999747378752e-05
0.5570775270462036,2736.963623046875,0.6354166865348816,0.49593496322631836,0.3636362552642822,1605.309326171875,0.4285714328289032,0.31578946113586426,9.999999747378752e-05
0.5023254752159119,3247.38671875,0.5869565010070801,0.4390243887901306,0.09999998658895493,8580.5654296875,1.0,0.05263157933950424,9.999999747378752e-05
0.4882628917694092,3665.143310546875,0.5777778029441833,0.42276424169540405,0.0,12711.05078125,0.0,0.0,9.999999747378752e-05
0.5636363625526428,6059.57861328125,0.6391752362251282,0.5040650367736816,0.7916666269302368,7241.330078125,0.6551724076271057,1.0,9.999999747378752e-05
0.5388127565383911,5273.8681640625,0.6145833134651184,0.4796747863292694,0.0952380821108818,4062.9150390625,0.5,0.05263157933950424,9.999999747378752e-05
0.4999999403953552,5714.0400390625,0.5955055952072144,0.43089431524276733,0.09999998658895493,8631.55078125,1.0,0.05263157933950424,9.999999747378752e-05
0.5070422291755676,4029.084228515625,0.6000000238418579,0.4390243887901306,0.5405405163764954,1475.6185302734375,0.5555555820465088,0.5263158082962036,9.999999747378752e-05
0.5535714030265808,4372.5830078125,0.6138613820075989,0.5040650367736816,0.2399999499320984,2787.085693359375,0.5,0.15789473056793213,9.999999747378752e-05
0.4622640907764435,4197.60791015625,0.550561785697937,0.3983739912509918,0.7555555105209351,1810.83251953125,0.6538461446762085,0.8947368264198303,9.999999747378752e-05
0.5345621109008789,2448.01220703125,0.6170212626457214,0.47154471278190613,0.7555555105209351,1780.4725341796875,0.6538461446762085,0.8947368264198303,9.999999747378752e-05
0.5570775270462036,3219.090087890625,0.6421052813529968,0.49593496322631836,0.8085105419158936,3818.431640625,0.6785714030265808,1.0,9.999999747378752e-05
0.602620005607605,4678.234375,0.650943398475647,0.5609756112098694,0.09999998658895493,5590.71875,1.0,0.05263157933950424,9.999999747378752e-05
0.48803821206092834,5962.33544921875,0.5930232405662537,0.4146341383457184,0.3124999701976776,1592.7191162109375,0.38461539149284363,0.2631579041481018,9.999999747378752e-05
0.5321100354194641,3748.25634765625,0.6105263233184814,0.47154471278190613,0.09999998658895493,5567.73583984375,1.0,0.05263157933950424,9.999999747378752e-05
0.5675674676895142,2515.162841796875,0.6428571343421936,0.5121951103210449,0.2399999499320984,2642.622802734375,0.5,0.15789473056793213,9.999999747378752e-05
0.5253455638885498,2821.688720703125,0.602150559425354,0.45528456568717957,0.0952380821108818,3705.846435546875,0.5,0.05263157933950424,9.999999747378752e-05
0.5327101945877075,2900.903076171875,0.6263736486434937,0.46341463923454285,0.32258057594299316,1619.421142578125,0.4166666567325592,0.2631579041481018,9.999999747378752e-05
0.5248868465423584,3444.8994140625,0.5918367505073547,0.47154471278190613,0.09999998658895493,4887.09375,1.0,0.05263157933950424,9.999999747378752e-05
0.5345621109008789,3452.284423828125,0.6170212626457214,0.47154471278190613,0.24999995529651642,2476.20654296875,0.6000000238418579,0.15789473056793213,9.999999747378752e-05
0.5818180441856384,5621.35888671875,0.6597937941551208,0.5203251838684082,0.3749999701976776,1536.1917724609375,0.4615384638309479,0.31578946113586426,9.999999747378752e-05
0.565022349357605,3570.845703125,0.6299999952316284,0.5121951103210449,0.0,8980.5859375,0.0,0.0,9.999999747378752e-05
0.5560537576675415,6416.68603515625,0.6200000047683716,0.5040650367736816,0.0,10503.658203125,0.0,0.0,9.999999747378752e-05
0.4585365056991577,6439.88232421875,0.5731707215309143,0.38211381435394287,0.7555555105209351,2026.2763671875,0.6538461446762085,0.8947368264198303,9.999999747378752e-05
0.5638766288757324,3806.895263671875,0.6153846383094788,0.5203251838684082,0.09999998658895493,4200.88525390625,1.0,0.05263157933950424,9.999999747378752e-05
0.4999999403953552,2605.02587890625,0.5955055952072144,0.43089431524276733,0.0952380821108818,3435.486083984375,0.5,0.05263157933950424,9.999999747378752e-05
0.5446009039878845,4246.76904296875,0.644444465637207,0.47154471278190613,0.7555555105209351,2246.3876953125,0.6538461446762085,0.8947368264198303,9.999999747378752e-05
0.5315315127372742,6466.64404296875,0.5959596037864685,0.4796747863292694,0.782608687877655,2730.387451171875,0.6666666865348816,0.9473684430122375,9.999999747378752e-05
0.5714284181594849,1683.015380859375,0.6336633563041687,0.5203251838684082,0.47058820724487305,1371.4866943359375,0.5333333611488342,0.42105263471603394,9.999999747378752e-06
0.5972849726676941,1275.5478515625,0.6770833134651184,0.5284552574157715,0.5,1320.8243408203125,0.529411792755127,0.4736842215061188,9.999999747378752e-06
0.6126126050949097,1016.1714477539062,0.6938775777816772,0.5528455376625061,0.4374999403953552,1399.547607421875,0.5384615659713745,0.3684210479259491,9.999999747378752e-06
0.5610859394073486,1036.2423095703125,0.6326530575752258,0.5040650367736816,0.47058820724487305,1360.3048095703125,0.5333333611488342,0.42105263471603394,9.999999747378752e-06
0.5529953837394714,1209.9522705078125,0.6382978558540344,0.4878048896789551,0.3076922595500946,1695.9136962890625,0.5714285969734192,0.21052631735801697,9.999999747378752e-06
0.5701357126235962,1262.64892578125,0.6354166865348816,0.49593496322631836,0.47058820724487305,1341.065673828125,0.5333333611488342,0.42105263471603394,9.999999747378752e-06
0.5955555438995361,1122.118896484375,0.656862735748291,0.5447154641151428,0.3076922595500946,1680.589111328125,0.5714285969734192,0.21052631735801697,9.999999747378752e-06
0.5674418210983276,1092.94677734375,0.6703296899795532,0.49593496322631836,0.3333333134651184,1427.7215576171875,0.4545454680919647,0.2631579041481018,9.999999747378752e-06
0.5882352590560913,990.0303344726562,0.6632652878761292,0.5284552574157715,0.6829268336296082,1277.4822998046875,0.6363636255264282,0.7368420958518982,9.999999747378752e-06
0.6098654270172119,1083.7950439453125,0.6800000071525574,0.5528455376625061,0.6499999761581421,1249.3846435546875,0.6190476417541504,0.6842105388641357,9.999999747378752e-06
0.5662100315093994,1111.8104248046875,0.6421052813529968,0.49593496322631836,0.5405405163764954,1243.592529296875,0.5555555820465088,0.5263158082962036,9.999999747378752e-06
0.6044443845748901,1055.359130859375,0.6767676472663879,0.5447154641151428,0.3333333134651184,1435.8519287109375,0.5,0.2631579041481018,9.999999747378752e-06
0.5714284181594849,1091.720947265625,0.6299999952316284,0.5121951103210449,0.2399999499320984,1937.704345703125,0.5,0.15789473056793213,9.999999747378752e-06
0.5794391632080078,1256.4185791015625,0.6777777671813965,0.49593496322631836,0.3448275327682495,1456.17919921875,0.5555555820465088,0.2631579041481018,9.999999747378752e-06
0.558558464050293,1086.7174072265625,0.6262626051902771,0.5040650367736816,0.47058820724487305,1279.415771484375,0.5333333611488342,0.42105263471603394,9.999999747378752e-06
0.5545454025268555,1067.4451904296875,0.6315789222717285,0.4878048896789551,0.47058820724487305,1218.0369873046875,0.5333333611488342,0.42105263471603394,9.999999747378752e-06
0.6260868310928345,981.1627807617188,0.682692289352417,0.577235758304596,0.23076915740966797,1635.21826171875,0.4285714328289032,0.15789473056793213,9.999999747378752e-06
0.5882352590560913,1145.2652587890625,0.6770833134651184,0.5284552574157715,0.29629623889923096,1506.77880859375,0.5,0.21052631735801697,9.999999747378752e-06
0.5622119307518005,1185.5294189453125,0.6489361524581909,0.49593496322631836,0.2399999499320984,1830.4599609375,0.5,0.15789473056793213,9.999999747378752e-06
0.5740739703178406,1056.2138671875,0.6630434989929199,0.49593496322631836,0.7555555105209351,1410.90283203125,0.6538461446762085,0.8947368264198303,9.999999747378752e-06
0.5829595327377319,1047.927001953125,0.6499999761581421,0.5284552574157715,0.514285683631897,1169.3387451171875,0.5625,0.4736842215061188,9.999999747378752e-06
0.5429863929748535,1067.0133056640625,0.6185566782951355,0.4878048896789551,0.3333333134651184,1284.5716552734375,0.4545454680919647,0.2631579041481018,9.999999747378752e-06
0.5740739703178406,1040.8968505859375,0.6666666865348816,0.5040650367736816,0.29629623889923096,1482.989013671875,0.4285714328289032,0.15789473056793213,9.999999747378752e-06
0.5675674676895142,1014.57763671875,0.6363636255264282,0.5121951103210449,0.3448275327682495,1315.19677734375,0.5,0.2631579041481018,9.999999747378752e-06
0.5479451417922974,1244.9803466796875,0.6170212626457214,0.47154471278190613,0.3571428060531616,1442.1708984375,0.5,0.21052631735801697,9.999999747378752e-06
0.5818180441856384,930.757568359375,0.6808510422706604,0.5203251838684082,0.3333333134651184,1263.121826171875,0.4545454680919647,0.2631579041481018,9.999999747378752e-06
0.5520361661911011,1162.205810546875,0.6224489808082581,0.49593496322631836,0.3571428060531616,1377.9637451171875,0.5555555820465088,0.2631579041481018,9.999999747378752e-06
0.5972849726676941,986.794189453125,0.6701030731201172,0.5284552574157715,0.47058820724487305,1162.4344482421875,0.5333333611488342,0.42105263471603394,9.999999747378752e-06
0.5688073039054871,1107.5284423828125,0.6595744490623474,0.5040650367736816,0.3448275327682495,1321.1005859375,0.5,0.2631579041481018,9.999999747378752e-06
0.5648147463798523,1091.1768798828125,0.6521739363670349,0.4878048896789551,0.7555555105209351,1521.5426025390625,0.6538461446762085,0.8947368264198303,9.999999747378752e-06
0.5789473652839661,1189.16552734375,0.6407766938209534,0.5365853905677795,0.17391300201416016,2221.006591796875,0.5,0.10526315867900848,9.999999747378752e-06
0.5497629642486572,1515.3966064453125,0.6590909361839294,0.47154471278190613,0.7555555105209351,1347.5367431640625,0.6538461446762085,0.8947368264198303,9.999999747378752e-06
0.6133332848548889,1137.8370361328125,0.6764705777168274,0.5609756112098694,0.3571428060531616,1364.15869140625,0.5555555820465088,0.2631579041481018,9.999999747378752e-06
0.5727272033691406,1103.8516845703125,0.65625,0.5121951103210449,0.7555555105209351,1598.96533203125,0.6538461446762085,0.8947368264198303,9.999999747378752e-06
0.558558464050293,1223.7386474609375,0.6262626051902771,0.5040650367736816,0.6829268336296082,1114.6229248046875,0.6363636255264282,0.7368420958518982,9.999999747378752e-06
0.5674418210983276,1014.6675415039062,0.6630434989929199,0.49593496322631836,0.4242423474788666,1163.9998779296875,0.4615384638309479,0.31578946113586426,9.999999747378752e-06
0.6140350103378296,1451.9453125,0.6666666865348816,0.5691056847572327,0.23076915740966797,1459.275146484375,0.4285714328289032,0.15789473056793213,9.999999747378752e-06
0.555555522441864,965.9544067382812,0.6521739363670349,0.4878048896789551,0.38709670305252075,1189.924072265625,0.5,0.31578946113586426,9.999999747378752e-06
0.5327101945877075,1049.166015625,0.6263736486434937,0.46341463923454285,0.4242423474788666,1128.3092041015625,0.5,0.3684210479259491,9.999999747378752e-06
0.5991188287734985,1026.4766845703125,0.6504854559898376,0.5447154641151428,0.24999995529651642,1997.499755859375,0.6000000238418579,0.15789473056793213,9.999999747378752e-06
0.5701357126235962,1131.99462890625,0.6458333134651184,0.5040650367736816,0.23076915740966797,1540.9573974609375,0.4285714328289032,0.15789473056793213,9.999999747378752e-06
0.5648147463798523,1036.788330078125,0.6521739363670349,0.4878048896789551,0.3333333134651184,1239.7972412109375,0.4545454680919647,0.2631579041481018,9.999999747378752e-06
0.5675674676895142,917.5067749023438,0.6363636255264282,0.5121951103210449,0.47058820724487305,1087.355224609375,0.5333333611488342,0.42105263471603394,9.999999747378752e-06
0.509433925151825,1150.69482421875,0.6067415475845337,0.4390243887901306,0.23076915740966797,1436.226318359375,0.4285714328289032,0.15789473056793213,9.999999747378752e-06
0.5370369553565979,1041.89013671875,0.6236559152603149,0.47154471278190613,0.3333333134651184,1246.325439453125,0.4545454680919647,0.2631579041481018,9.999999747378752e-06
0.5945945382118225,1161.25439453125,0.6666666865348816,0.5365853905677795,0.3333333134651184,1194.7950439453125,0.4545454680919647,0.2631579041481018,9.999999747378752e-06
0.5023254752159119,1102.219482421875,0.5869565010070801,0.4390243887901306,0.6829268336296082,1076.0850830078125,0.6363636255264282,0.7368420958518982,9.999999747378752e-06
0.5829595327377319,1031.0841064453125,0.6530612111091614,0.5203251838684082,0.5789473056793213,1057.4661865234375,0.5789473652839661,0.5789473652839661,9.999999747378752e-06
0.5739909410476685,944.3302612304688,0.6363636255264282,0.5121951103210449,0.38709670305252075,1155.9544677734375,0.4545454680919647,0.2631579041481018,9.999999747378752e-06
0.5363635420799255,1035.2921142578125,0.6145833134651184,0.4796747863292694,0.29629623889923096,1327.7515869140625,0.5714285969734192,0.21052631735801697,9.999999747378752e-06
0.5420560240745544,1026.228515625,0.6333333253860474,0.46341463923454285,0.5789473056793213,1046.046630859375,0.5789473652839661,0.5789473652839661,9.999999747378752e-06
0.589285671710968,932.069091796875,0.6499999761581421,0.5284552574157715,0.4242423474788666,1081.1761474609375,0.5,0.3684210479259491,9.999999747378752e-06
0.5818180441856384,1032.034423828125,0.6526315808296204,0.5040650367736816,0.7555555105209351,1998.1934814453125,0.6538461446762085,0.8947368264198303,9.999999747378752e-06
0.5662100315093994,1401.573974609375,0.6489361524581909,0.49593496322631836,0.3333333134651184,1218.2330322265625,0.4545454680919647,0.2631579041481018,9.999999747378752e-06
0.5454545021057129,992.922607421875,0.6145833134651184,0.4796747863292694,0.3076922595500946,1361.195556640625,0.5714285969734192,0.21052631735801697,9.999999747378752e-06
0.5610859394073486,931.3533325195312,0.625,0.4878048896789551,0.4242423474788666,1097.0833740234375,0.5384615659713745,0.3684210479259491,9.999999747378752e-06
0.5701357126235962,1022.7371215820312,0.6428571343421936,0.5121951103210449,0.3571428060531616,1259.674072265625,0.5,0.21052631735801697,9.999999747378752e-06
0.5535714030265808,1291.46826171875,0.6100000143051147,0.49593496322631836,0.2399999499320984,1402.921875,0.5,0.15789473056793213,9.999999747378752e-06
0.5898616909980774,1102.4754638671875,0.6808510422706604,0.5203251838684082,0.4242423474788666,1070.4344482421875,0.5,0.3684210479259491,9.999999747378752e-06
0.5855855345726013,1192.53857421875,0.6565656661987305,0.5284552574157715,0.2399999499320984,1758.972900390625,0.5,0.15789473056793213,9.999999747378752e-06
0.4999999403953552,1109.3291015625,0.5955055952072144,0.43089431524276733,0.6499999761581421,1014.623046875,0.6000000238418579,0.6315789222717285,9.999999747378752e-06
0.5955555438995361,1024.7117919921875,0.6534653306007385,0.5365853905677795,0.2399999499320984,1750.06201171875,0.5,0.15789473056793213,9.999999747378752e-06
0.5610859394073486,1242.38134765625,0.6391752362251282,0.5040650367736816,0.2399999499320984,1721.96923828125,0.5,0.15789473056793213,9.999999747378752e-06
0.555555522441864,1188.544677734375,0.6451612710952759,0.4878048896789551,0.47058820724487305,1033.9957275390625,0.5,0.3684210479259491,9.999999747378752e-06
0.5648147463798523,870.0068969726562,0.6559139490127563,0.49593496322631836,0.7555555105209351,1295.955322265625,0.6538461446762085,0.8947368264198303,9.999999747378752e-06
0.5405405163764954,1208.268798828125,0.6060606241226196,0.4878048896789551,0.29629623889923096,1289.4088134765625,0.5,0.21052631735801697,9.999999747378752e-06
0.5955555438995361,883.7135620117188,0.6534653306007385,0.5365853905677795,0.2399999499320984,1504.082275390625,0.5,0.15789473056793213,9.999999747378752e-06
0.5855855345726013,880.278564453125,0.6565656661987305,0.5284552574157715,0.2399999499320984,1495.4031982421875,0.5,0.15789473056793213,9.999999747378752e-06
0.555555522441864,937.7115478515625,0.6413043737411499,0.4796747863292694,0.4242423474788666,1014.7682495117188,0.5,0.3684210479259491,9.999999747378752e-06
0.6283184885978699,937.1036987304688,0.6930692791938782,0.5691056847572327,0.5789473056793213,985.6782836914062,0.6111111044883728,0.5789473652839661,9.999999747378752e-06
0.5363635420799255,890.8660888671875,0.6041666865348816,0.47154471278190613,0.45161283016204834,1068.79541015625,0.5833333134651184,0.3684210479259491,9.999999747378752e-06
0.5855855345726013,982.897216796875,0.6530612111091614,0.5203251838684082,0.2399999499320984,1607.1671142578125,0.5,0.15789473056793213,9.999999747378752e-06
0.5909090042114258,974.2015380859375,0.6666666865348816,0.5203251838684082,0.29629623889923096,1305.619873046875,0.5,0.21052631735801697,9.999999747378752e-06
0.539534866809845,1316.5260009765625,0.6304348111152649,0.47154471278190613,0.2399999499320984,1618.599365234375,0.5,0.15789473056793213,9.999999747378752e-06
0.5739909410476685,1045.8447265625,0.6363636255264282,0.5121951103210449,0.2399999499320984,1433.351806640625,0.5,0.15789473056793213,9.999999747378752e-06
0.5701357126235962,941.7055053710938,0.6526315808296204,0.5040650367736816,0.4374999403953552,1035.9288330078125,0.5833333134651184,0.3684210479259491,9.999999747378752e-06
0.5791854858398438,821.3596801757812,0.6494845151901245,0.5121951103210449,0.29629623889923096,1230.5751953125,0.5,0.21052631735801697,9.999999747378752e-06
0.5363635420799255,924.8486328125,0.6082473993301392,0.4796747863292694,0.2857142388820648,1265.7196044921875,0.5,0.21052631735801697,9.999999747378752e-06
0.5596329569816589,844.52587890625,0.6451612710952759,0.4878048896789551,0.4374999403953552,1000.4761352539062,0.5384615659713745,0.3684210479259491,9.999999747378752e-06
0.5023254752159119,1075.8040771484375,0.593406617641449,0.4390243887901306,0.4848484396934509,976.5101318359375,0.5714285969734192,0.42105263471603394,9.999999747378752e-06
0.6324785947799683,1357.6591796875,0.6636363863945007,0.5934959053993225,0.2399999499320984,1614.3809814453125,0.5,0.15789473056793213,9.999999747378752e-06
0.5352111458778381,1212.301025390625,0.6333333253860474,0.46341463923454285,0.2857142388820648,1205.34423828125,0.4444444477558136,0.21052631735801697,9.999999747378752e-06
0.5806450843811035,843.9049682617188,0.6774193644523621,0.5121951103210449,0.3999999165534973,1102.2669677734375,0.5454545617103577,0.31578946113586426,9.999999747378752e-06
0.5814977288246155,1280.5167236328125,0.6274510025978088,0.5203251838684082,0.2399999499320984,1584.1514892578125,0.5,0.15789473056793213,9.999999747378752e-06
0.5258215665817261,903.1856079101562,0.6222222447395325,0.45528456568717957,0.3448275327682495,1141.6270751953125,0.4444444477558136,0.21052631735801697,9.999999747378752e-06
0.5688073039054871,1014.9520263671875,0.6526315808296204,0.5040650367736816,0.7555555105209351,1441.9705810546875,0.6538461446762085,0.8947368264198303,9.999999747378752e-06
0.5662100315093994,957.5853271484375,0.6458333134651184,0.5040650367736816,0.4374999403953552,1032.6629638671875,0.5384615659713745,0.3684210479259491,9.999999747378752e-06
0.6288208961486816,918.6051635742188,0.6761904954910278,0.577235758304596,0.1818181425333023,1854.84912109375,0.6666666865348816,0.10526315867900848,9.999999747378752e-06
0.5570775270462036,813.6010131835938,0.6354166865348816,0.49593496322631836,0.2857142388820648,1239.5499267578125,0.4444444477558136,0.21052631735801697,9.999999747378752e-06
0.5046728253364563,1068.223876953125,0.593406617641449,0.4390243887901306,0.2857142388820648,1151.2108154296875,0.4444444477558136,0.21052631735801697,9.999999747378752e-06
0.5803570747375488,797.7977294921875,0.6435643434524536,0.5284552574157715,0.2399999499320984,1425.4744873046875,0.5,0.15789473056793213,9.999999747378752e-06
0.5765765309333801,852.6268310546875,0.6391752362251282,0.5040650367736816,0.2857142388820648,1161.3646240234375,0.4444444477558136,0.21052631735801697,9.999999747378752e-06
0.5633801817893982,1007.0386352539062,0.6741573214530945,0.4878048896789551,0.2399999499320984,1491.1591796875,0.5,0.15789473056793213,9.999999747378752e-06
0.5495495796203613,1091.2474365234375,0.6185566782951355,0.4878048896789551,0.45161283016204834,1065.64111328125,0.5833333134651184,0.3684210479259491,9.999999747378752e-06
0.6036035418510437,808.7806396484375,0.6767676472663879,0.5447154641151428,0.2857142388820648,1238.4951171875,0.4444444477558136,0.21052631735801697,9.999999747378752e-06
0.5982142686843872,858.656982421875,0.6633663177490234,0.5447154641151428,0.3999999165534973,1110.2940673828125,0.5454545617103577,0.31578946113586426,9.999999747378752e-06
0.5925924777984619,786.1326293945312,0.6847826242446899,0.5121951103210449,0.7727271914482117,1016.57275390625,0.6800000071525574,0.8947368264198303,9.999999747378752e-06
0.565022349357605,1151.848388671875,0.6363636255264282,0.5121951103210449,0.2399999499320984,1327.815185546875,0.5,0.15789473056793213,9.999999747378752e-06
0.6113536357879639,844.7218627929688,0.6603773832321167,0.5691056847572327,0.29629623889923096,1213.960205078125,0.5,0.21052631735801697,9.999999747378752e-06
0.5420560240745544,1001.9378662109375,0.6373626589775085,0.47154471278190613,0.1904761791229248,2065.19091796875,1.0,0.10526315867900848,9.999999747378752e-06
0.5436892509460449,811.1102294921875,0.6829268336296082,0.45528456568717957,0.4999999403953552,925.5240478515625,0.6153846383094788,0.42105263471603394,9.999999974752427e-07
0.5829595327377319,707.8047485351562,0.6565656661987305,0.5284552574157715,0.3999999165534973,990.8057861328125,0.5454545617103577,0.31578946113586426,9.999999974752427e-07
0.5662100315093994,664.0787353515625,0.6458333134651184,0.5040650367736816,0.45161283016204834,989.9503173828125,0.5454545617103577,0.31578946113586426,9.999999974752427e-07
0.5866666436195374,663.4608154296875,0.6534653306007385,0.5365853905677795,0.5454545021057129,912.496826171875,0.6428571343421936,0.4736842215061188,9.999999974752427e-07
0.5648147463798523,660.4742431640625,0.6559139490127563,0.49593496322631836,0.45161283016204834,971.830078125,0.5833333134651184,0.3684210479259491,9.999999974752427e-07
0.6063348054885864,667.0820922851562,0.6836734414100647,0.5447154641151428,0.5714284777641296,890.4522705078125,0.6000000238418579,0.4736842215061188,9.999999974752427e-07
0.6017699241638184,671.3939208984375,0.656862735748291,0.5447154641151428,0.4999999403953552,948.108642578125,0.6153846383094788,0.42105263471603394,9.999999974752427e-07
0.6036035418510437,660.8617553710938,0.6734693646430969,0.5365853905677795,0.4999999403953552,947.0598754882812,0.6153846383094788,0.42105263471603394,9.999999974752427e-07
0.565022349357605,662.7588500976562,0.6224489808082581,0.49593496322631836,0.3999999165534973,1010.4495849609375,0.5454545617103577,0.31578946113586426,9.999999974752427e-07
0.6098654270172119,674.400146484375,0.6868686676025391,0.5528455376625061,0.3448275327682495,1076.8890380859375,0.5,0.2631579041481018,9.999999974752427e-07
0.5981307625770569,654.8887939453125,0.7078651785850525,0.5121951103210449,0.5294117331504822,890.8013916015625,0.6000000238418579,0.4736842215061188,9.999999974752427e-07
0.6106194257736206,703.2037353515625,0.6666666865348816,0.5528455376625061,0.5714284777641296,888.4389038085938,0.6000000238418579,0.4736842215061188,9.999999974752427e-07
0.5929203033447266,683.170654296875,0.6470588445663452,0.5365853905677795,0.4999999403953552,945.6737060546875,0.6153846383094788,0.42105263471603394,9.999999974752427e-07
0.5945945382118225,677.70556640625,0.6804123520851135,0.5365853905677795,0.5294117331504822,894.266357421875,0.6000000238418579,0.4736842215061188,9.999999974752427e-07
0.5777776837348938,653.5967407226562,0.6336633563041687,0.5203251838684082,0.3448275327682495,1057.86962890625,0.5,0.2631579041481018,9.999999974752427e-07
0.5446009039878845,667.5960693359375,0.6404494643211365,0.46341463923454285,0.45161283016204834,964.7205810546875,0.5833333134651184,0.3684210479259491,9.999999974752427e-07
0.6008967757225037,654.59716796875,0.6666666865348816,0.5365853905677795,0.3999999165534973,1040.5152587890625,0.5454545617103577,0.31578946113586426,9.999999974752427e-07
0.5855855345726013,683.2203369140625,0.6530612111091614,0.5203251838684082,0.45161283016204834,986.9510498046875,0.5833333134651184,0.3684210479259491,9.999999974752427e-07
0.5688073039054871,658.6024780273438,0.6526315808296204,0.5040650367736816,0.4999999403953552,923.3307495117188,0.6153846383094788,0.42105263471603394,9.999999974752427e-07
0.5955555438995361,650.6657104492188,0.6632652878761292,0.5284552574157715,0.3999999165534973,1054.860107421875,0.5,0.2631579041481018,9.999999974752427e-07
0.6079294681549072,665.0721435546875,0.6666666865348816,0.5528455376625061,0.45161283016204834,979.2039794921875,0.5833333134651184,0.3684210479259491,9.999999974752427e-07
0.6071428060531616,653.0823364257812,0.6734693646430969,0.5365853905677795,0.2857142388820648,1104.635009765625,0.4444444477558136,0.21052631735801697,9.999999974752427e-07
0.5806450843811035,674.7893676757812,0.6702127456665039,0.5121951103210449,0.45161283016204834,992.8880615234375,0.5833333134651184,0.3684210479259491,9.999999974752427e-07
0.5624999403953552,681.2718505859375,0.6363636255264282,0.5121951103210449,0.4999999403953552,950.8058471679688,0.6153846383094788,0.42105263471603394,9.999999974752427e-07
0.5882352590560913,654.4617919921875,0.6597937941551208,0.5203251838684082,0.45161283016204834,975.7308349609375,0.5833333134651184,0.3684210479259491,9.999999974752427e-07
0.6071428060531616,667.1279907226562,0.6700000166893005,0.5447154641151428,0.45161283016204834,971.7758178710938,0.5833333134651184,0.3684210479259491,9.999999974752427e-07
0.5688073039054871,646.0896606445312,0.6666666865348816,0.5040650367736816,0.4999999403953552,944.734130859375,0.6153846383094788,0.42105263471603394,9.999999974752427e-07
0.6222221851348877,651.4714965820312,0.686274528503418,0.5691056847572327,0.45161283016204834,966.6539306640625,0.5833333134651184,0.3684210479259491,9.999999974752427e-07
0.6055045127868652,676.7858276367188,0.6881720423698425,0.5203251838684082,0.5945945382118225,884.5812377929688,0.6111111044883728,0.5789473652839661,9.999999974752427e-07
0.6120688915252686,673.11962890625,0.6538461446762085,0.5528455376625061,0.4999999403953552,946.3370361328125,0.6153846383094788,0.42105263471603394,9.999999974752427e-07
0.6126126050949097,668.1691284179688,0.6868686676025391,0.5528455376625061,0.5294117331504822,904.4264526367188,0.6000000238418579,0.4736842215061188,9.999999974752427e-07
0.6249998807907104,649.3389282226562,0.6899999976158142,0.5609756112098694,0.45161283016204834,974.874755859375,0.5833333134651184,0.3684210479259491,9.999999974752427e-07
0.6126126050949097,641.026611328125,0.6804123520851135,0.5365853905677795,0.3999999165534973,1052.6971435546875,0.5,0.2631579041481018,9.999999974752427e-07
0.5514017939567566,692.062255859375,0.644444465637207,0.47154471278190613,0.4999999403953552,934.1795654296875,0.6153846383094788,0.42105263471603394,9.999999974752427e-07
0.5999999642372131,639.310302734375,0.644859790802002,0.5609756112098694,0.3448275327682495,1074.7216796875,0.5,0.2631579041481018,9.999999974752427e-07
0.5898616909980774,654.6932983398438,0.6813187003135681,0.5040650367736816,0.5294117331504822,925.4454345703125,0.5714285969734192,0.42105263471603394,9.999999974752427e-07
0.6106194257736206,647.774658203125,0.6764705777168274,0.5609756112098694,0.45161283016204834,1009.3211059570312,0.5833333134651184,0.3684210479259491,9.999999974752427e-07
0.6106194257736206,651.2267456054688,0.6767676472663879,0.5447154641151428,0.3999999165534973,1047.439697265625,0.5454545617103577,0.31578946113586426,9.999999974752427e-07
0.5945945382118225,660.3483276367188,0.6736842393875122,0.5203251838684082,0.45161283016204834,1015.0967407226562,0.5833333134651184,0.3684210479259491,9.999999974752427e-07
0.5814977288246155,667.9363403320312,0.6407766938209534,0.5365853905677795,0.45161283016204834,978.8601684570312,0.5833333134651184,0.3684210479259491,9.999999974752427e-07
0.6018517017364502,683.4776611328125,0.698924720287323,0.5284552574157715,0.3999999165534973,1059.1123046875,0.5454545617103577,0.31578946113586426,9.999999974752427e-07
0.6347824931144714,637.6666870117188,0.6886792182922363,0.5934959053993225,0.45161283016204834,997.9264526367188,0.5833333134651184,0.3684210479259491,9.999999974752427e-07
0.5753424167633057,656.2718505859375,0.6595744490623474,0.5040650367736816,0.3999999165534973,1061.9229736328125,0.5454545617103577,0.31578946113586426,9.999999974752427e-07
0.6036035418510437,643.6322631835938,0.6767676472663879,0.5447154641151428,0.3448275327682495,1087.8983154296875,0.5,0.2631579041481018,9.999999974752427e-07
0.5887849926948547,655.1752319335938,0.6888889074325562,0.5040650367736816,0.5294117331504822,921.5191040039062,0.6000000238418579,0.4736842215061188,9.999999974752427e-07
0.6140350103378296,654.1058959960938,0.656862735748291,0.5447154641151428,0.4999999403953552,946.0186157226562,0.6153846383094788,0.42105263471603394,9.999999974752427e-07
0.6315788626670837,611.43408203125,0.6857143044471741,0.5853658318519592,0.29629623889923096,1153.32763671875,0.5,0.21052631735801697,9.999999974752427e-07
0.5953487753868103,674.0626220703125,0.695652186870575,0.5203251838684082,0.4999999403953552,952.6558227539062,0.6153846383094788,0.42105263471603394,9.999999974752427e-07
0.5882352590560913,688.1649169921875,0.6632652878761292,0.5284552574157715,0.45161283016204834,1025.959716796875,0.5833333134651184,0.3684210479259491,9.999999974752427e-07
0.5887849926948547,636.1742553710938,0.6888889074325562,0.5040650367736816,0.45161283016204834,989.8892822265625,0.5833333134651184,0.3684210479259491,1.0000000116860974e-07
0.5963301658630371,629.563232421875,0.6842105388641357,0.5284552574157715,0.4999999403953552,959.2677612304688,0.5833333134651184,0.3684210479259491,1.0000000116860974e-07
0.6098654270172119,628.7979125976562,0.6938775777816772,0.5528455376625061,0.45161283016204834,963.6575927734375,0.5833333134651184,0.3684210479259491,1.0000000116860974e-07
0.6126126050949097,629.4549560546875,0.6868686676025391,0.5528455376625061,0.45161283016204834,963.1651611328125,0.5833333134651184,0.3684210479259491,1.0000000116860974e-07
0.6140350103378296,628.1026611328125,0.6634615659713745,0.5609756112098694,0.4999999403953552,956.21484375,0.5833333134651184,0.3684210479259491,1.0000000116860974e-07
0.6126126050949097,626.9471435546875,0.6836734414100647,0.5447154641151428,0.45161283016204834,967.5599365234375,0.5833333134651184,0.3684210479259491,1.0000000116860974e-07
0.6222221851348877,627.3753051757812,0.6907216310501099,0.5447154641151428,0.4999999403953552,955.358642578125,0.6153846383094788,0.42105263471603394,1.0000000116860974e-07
0.614718496799469,626.1632080078125,0.6868686676025391,0.5528455376625061,0.4999999403953552,953.84912109375,0.6153846383094788,0.42105263471603394,1.0000000116860974e-07
0.6233765482902527,628.5484619140625,0.6792452931404114,0.5853658318519592,0.45161283016204834,969.4193115234375,0.5833333134651184,0.3684210479259491,1.0000000116860974e-07
0.6249998807907104,631.4010009765625,0.6969696879386902,0.5609756112098694,0.45161283016204834,969.7762451171875,0.5833333134651184,0.3684210479259491,1.0000000116860974e-07
