F1Score,loss,precision,recall,val_F1Score,val_loss,val_precision,val_recall,learning_rate
0.576271116733551,37572.01953125,0.6238532066345215,0.5354330539703369,0.0,9150.3193359375,0.0,0.0,9.999999747378752e-05
0.4474885165691376,4990.5322265625,0.5333333611488342,0.3779527544975281,0.08333329111337662,2527.450439453125,0.1428571492433548,0.05882352963089943,9.999999747378752e-05
0.5181817412376404,4927.05859375,0.6129032373428345,0.4488188922405243,0.09090905636548996,2799.3896484375,0.20000000298023224,0.05882352963089943,9.999999747378752e-05
0.43720927834510803,4973.662109375,0.5340909361839294,0.3700787425041199,0.0,4874.93603515625,0.0,0.0,9.999999747378752e-05
0.5045044422149658,4637.30078125,0.5894736647605896,0.4409448802471161,0.5789473652839661,1815.2481689453125,0.523809552192688,0.6470588445663452,9.999999747378752e-05
0.4615384042263031,4560.13720703125,0.542553186416626,0.4015747904777527,0.38709673285484314,1637.26904296875,0.4285714328289032,0.3529411852359772,9.999999747378752e-05
0.47058820724487305,5055.00732421875,0.5483871102333069,0.4015747904777527,0.6818181276321411,3028.30126953125,0.5555555820465088,0.8823529481887817,9.999999747378752e-05
0.43518513441085815,5374.798828125,0.5287356376647949,0.36220473051071167,0.7111110687255859,3117.480224609375,0.5714285969734192,0.9411764740943909,9.999999747378752e-05
0.5217390656471252,5849.27587890625,0.582524299621582,0.4724409580230713,0.7391303777694702,3911.817626953125,0.5862069129943848,1.0,9.999999747378752e-05
0.43518513441085815,4171.07763671875,0.5340909361839294,0.3700787425041199,0.42424237728118896,1287.777099609375,0.46666666865348816,0.4117647111415863,9.999999747378752e-05
0.45535707473754883,5025.19677734375,0.5257731676101685,0.4015747904777527,0.0,6428.513671875,0.0,0.0,9.999999747378752e-05
0.47747743129730225,3300.3603515625,0.5591397881507874,0.4094488322734833,0.1818181276321411,1650.0272216796875,0.4000000059604645,0.11764705926179886,9.999999747378752e-05
0.48648643493652344,3974.412841796875,0.5684210658073425,0.4251968562602997,0.3571428060531616,1230.7005615234375,0.4545454680919647,0.29411765933036804,9.999999747378752e-05
0.4093022644519806,4792.65283203125,0.5,0.34645670652389526,0.0,2764.63623046875,0.0,0.0,9.999999747378752e-05
0.4594593942165375,3118.452880859375,0.5384615659713745,0.3858267664909363,0.6666666269302368,1189.76220703125,0.5600000023841858,0.8235294222831726,9.999999747378752e-05
0.5589519739151001,6278.91259765625,0.6237623691558838,0.4960629940032959,0.4848484396934509,943.7708129882812,0.5,0.47058823704719543,9.999999747378752e-05
0.4859812557697296,3330.42431640625,0.5977011322975159,0.4094488322734833,0.7391303777694702,5195.14794921875,0.5862069129943848,1.0,9.999999747378752e-05
0.4484304189682007,9506.7607421875,0.5208333134651184,0.3937007784843445,0.0,6096.3583984375,0.0,0.0,9.999999747378752e-05
0.5610858798027039,3274.035888671875,0.6595744490623474,0.4881889820098877,0.7391303777694702,4190.50732421875,0.5862069129943848,1.0,9.999999747378752e-05
0.41860461235046387,2985.9140625,0.5113636255264282,0.35433071851730347,0.1052631363272667,1545.8870849609375,0.5,0.05882352963089943,9.999999747378752e-05
0.4292236864566803,2939.6640625,0.510869562625885,0.3700787425041199,0.6976743936538696,865.6998291015625,0.5600000023841858,0.8235294222831726,9.999999747378752e-05
0.5315314531326294,2770.220703125,0.621052622795105,0.4645669162273407,0.7391303777694702,2709.20556640625,0.5862069129943848,1.0,9.999999747378752e-05
0.543859601020813,4171.1220703125,0.6138613820075989,0.4881889820098877,0.0,5194.22509765625,0.0,0.0,9.999999747378752e-05
0.513513445854187,3523.40478515625,0.6000000238418579,0.4488188922405243,0.0,1706.388916015625,0.0,0.0,9.999999747378752e-05
0.5178570747375488,5006.75634765625,0.5979381203651428,0.4566929042339325,0.0,2160.287109375,0.0,0.0,9.999999747378752e-05
0.4748857915401459,2734.482177734375,0.5555555820465088,0.3937007784843445,0.0,2752.46142578125,0.0,0.0,9.999999747378752e-05
0.4882628619670868,3217.546875,0.6000000238418579,0.4015747904777527,0.7391303777694702,2159.3310546875,0.5862069129943848,1.0,9.999999747378752e-05
0.5253455638885498,3872.285400390625,0.6292135119438171,0.4409448802471161,0.7391303777694702,1874.1383056640625,0.5862069129943848,1.0,9.999999747378752e-05
0.48888880014419556,2165.135009765625,0.5612244606018066,0.4330708682537079,0.4285713732242584,783.3721923828125,0.5454545617103577,0.3529411852359772,9.999999747378752e-05
0.5248868465423584,1428.9302978515625,0.6129032373428345,0.4488188922405243,0.19047614932060242,1224.212158203125,0.5,0.11764705926179886,9.999999747378752e-05
0.48868775367736816,2659.502197265625,0.5744680762290955,0.4251968562602997,0.6976743936538696,819.9339599609375,0.5769230723381042,0.8823529481887817,9.999999747378752e-05
0.5221238732337952,2594.6806640625,0.5959596037864685,0.4645669162273407,0.0,5278.935546875,0.0,0.0,9.999999747378752e-05
0.5412843227386475,2932.609130859375,0.6483516693115234,0.4645669162273407,0.727272629737854,942.6156005859375,0.5925925970077515,0.9411764740943909,9.999999747378752e-05
0.46363627910614014,3184.264892578125,0.54347825050354,0.3937007784843445,0.0,6683.49853515625,0.0,0.0,9.999999747378752e-05
0.47926265001296997,3560.133056640625,0.5777778029441833,0.4094488322734833,0.0,2827.605712890625,0.0,0.0,9.999999747378752e-05
0.46363627910614014,6081.25341796875,0.5483871102333069,0.4015747904777527,0.42424237728118896,652.0850219726562,0.46666666865348816,0.4117647111415863,9.999999747378752e-05
0.5535714030265808,2453.492919921875,0.6391752362251282,0.4881889820098877,0.0,2819.61083984375,0.0,0.0,9.999999747378752e-05
0.5244444012641907,1680.0770263671875,0.6082473993301392,0.4645669162273407,0.7111110687255859,1027.603515625,0.5714285969734192,0.9411764740943909,9.999999747378752e-05
0.49107134342193604,3150.578125,0.5670102834701538,0.4330708682537079,0.0,5576.65185546875,0.0,0.0,9.999999747378752e-05
0.46296289563179016,2689.091064453125,0.5617977380752563,0.3937007784843445,0.727272629737854,869.044189453125,0.5925925970077515,0.9411764740943909,9.999999747378752e-05
0.47222214937210083,2982.5244140625,0.5730336904525757,0.4015747904777527,0.7391303777694702,2535.223876953125,0.5862069129943848,1.0,9.999999747378752e-05
0.45161283016204834,3179.71435546875,0.5444444417953491,0.3858267664909363,0.7391303777694702,1114.719482421875,0.5862069129943848,1.0,9.999999747378752e-05
0.5339365601539612,2912.382568359375,0.6276595592498779,0.4645669162273407,0.0,1552.789306640625,0.0,0.0,9.999999747378752e-05
0.6173912882804871,1619.759765625,0.6893203854560852,0.5590550899505615,0.27272725105285645,1057.5809326171875,0.6000000238418579,0.1764705926179886,9.999999747378752e-05
0.5381165146827698,1524.5234375,0.6276595592498779,0.4645669162273407,0.5999999046325684,669.1212768554688,0.52173912525177,0.7058823704719543,9.999999747378752e-05
0.4977777302265167,2708.25830078125,0.5670102834701538,0.4330708682537079,0.0,2213.45751953125,0.0,0.0,9.999999747378752e-05
0.49773746728897095,2299.21630859375,0.5913978219032288,0.4330708682537079,0.0,3499.397705078125,0.0,0.0,9.999999747378752e-05
0.5381165146827698,3270.951904296875,0.625,0.4724409580230713,0.7391303777694702,1953.63916015625,0.5862069129943848,1.0,9.999999747378752e-05
0.5221238732337952,1917.88671875,0.5959596037864685,0.4645669162273407,0.41176465153694153,614.140869140625,0.4117647111415863,0.4117647111415863,9.999999747378752e-05
0.5067873001098633,2025.7691650390625,0.5957446694374084,0.4409448802471161,0.1052631363272667,1389.6453857421875,0.5,0.05882352963089943,9.999999747378752e-05
0.46575337648391724,4009.825439453125,0.554347813129425,0.4015747904777527,0.0,2271.55615234375,0.0,0.0,9.999999747378752e-05
0.49541279673576355,2544.767578125,0.593406617641449,0.4251968562602997,0.7391303777694702,1541.3697509765625,0.5862069129943848,1.0,9.999999747378752e-05
0.45454537868499756,2822.5771484375,0.5376344323158264,0.3937007784843445,0.3999999463558197,646.7277221679688,0.4615384638309479,0.3529411852359772,9.999999747378752e-05
0.5701753497123718,2244.278564453125,0.6363636255264282,0.4960629940032959,0.27272725105285645,1040.925048828125,0.6000000238418579,0.1764705926179886,9.999999747378752e-05
0.5066666007041931,2411.571044921875,0.581632673740387,0.4488188922405243,0.0,3875.378173828125,0.0,0.0,9.999999747378752e-05
0.6079294085502625,4562.26171875,0.6899999976158142,0.5433070659637451,0.7391303777694702,1497.561767578125,0.5862069129943848,1.0,9.999999747378752e-05
0.5429863929748535,3087.83984375,0.6382978558540344,0.4724409580230713,0.0,5239.98583984375,0.0,0.0,9.999999747378752e-05
0.48430487513542175,3945.51708984375,0.5625,0.4251968562602997,0.0,2721.283935546875,0.0,0.0,9.999999747378752e-05
0.49315059185028076,2379.593994140625,0.5869565010070801,0.4251968562602997,0.7391303777694702,1204.3692626953125,0.5862069129943848,1.0,9.999999747378752e-05
0.5066666007041931,1661.0166015625,0.5876288414001465,0.4488188922405243,0.0,5844.677734375,0.0,0.0,9.999999747378752e-05
0.5116277933120728,3134.109130859375,0.6162790656089783,0.4173228442668915,0.7391303777694702,2407.510498046875,0.5862069129943848,1.0,9.999999747378752e-05
0.559999942779541,2295.579833984375,0.6428571343421936,0.4960629940032959,0.7391303777694702,2254.307861328125,0.5862069129943848,1.0,9.999999747378752e-05
0.46846839785575867,2150.208984375,0.5473684072494507,0.4094488322734833,0.0,2046.033935546875,0.0,0.0,9.999999747378752e-05
0.559999942779541,1979.0968017578125,0.6391752362251282,0.4881889820098877,0.3999999463558197,615.8639526367188,0.4615384638309479,0.3529411852359772,9.999999747378752e-05
0.5437787771224976,1858.5413818359375,0.6555555462837219,0.4645669162273407,0.7391303777694702,4183.93603515625,0.5862069129943848,1.0,9.999999747378752e-05
0.5897434949874878,2858.533203125,0.644859790802002,0.5433070659637451,0.0,2604.341796875,0.0,0.0,9.999999747378752e-05
0.5357142090797424,2387.015869140625,0.625,0.4724409580230713,0.45161283016204834,598.3587036132812,0.5,0.4117647111415863,9.999999747378752e-05
0.4727272391319275,2125.518798828125,0.5777778029441833,0.4094488322734833,0.7391303777694702,1040.7349853515625,0.5862069129943848,1.0,9.999999747378752e-05
0.5022420883178711,1388.7938232421875,0.5833333134651184,0.4409448802471161,0.19999997317790985,1441.9183349609375,0.6666666865348816,0.11764705926179886,9.999999747378752e-05
0.45248860120773315,1825.901611328125,0.532608687877655,0.3858267664909363,0.7391303777694702,1977.72119140625,0.5862069129943848,1.0,9.999999747378752e-05
0.4594593942165375,3701.793701171875,0.5368421077728271,0.4015747904777527,0.7391303777694702,1950.8653564453125,0.5862069129943848,1.0,9.999999747378752e-05
0.4784688949584961,4172.49462890625,0.6097561120986938,0.3937007784843445,0.7391303777694702,3282.9697265625,0.5862069129943848,1.0,9.999999747378752e-05
0.538461446762085,2945.3515625,0.5943396091461182,0.4960629940032959,0.0,3861.093994140625,0.0,0.0,9.999999747378752e-05
0.5045044422149658,3352.48388671875,0.5894736647605896,0.4409448802471161,0.5789473652839661,636.33935546875,0.523809552192688,0.6470588445663452,9.999999747378752e-05
0.4666666090488434,4763.1123046875,0.5903614163398743,0.3858267664909363,0.7391303777694702,3379.18798828125,0.5862069129943848,1.0,9.999999747378752e-05
0.5089284777641296,1392.3887939453125,0.5789473652839661,0.4330708682537079,0.7391303777694702,1620.841064453125,0.5862069129943848,1.0,9.999999747378752e-05
0.46788984537124634,1171.6500244140625,0.5604395866394043,0.4015747904777527,0.7391303777694702,1349.399658203125,0.5862069129943848,1.0,9.999999747378752e-05
0.5045044422149658,2837.588623046875,0.5894736647605896,0.4409448802471161,0.7391303777694702,3946.7685546875,0.5862069129943848,1.0,9.999999747378752e-05
0.5244444012641907,4006.087646484375,0.6020408272743225,0.4645669162273407,0.7391303777694702,1828.08447265625,0.5862069129943848,1.0,9.999999747378752e-05
0.5181817412376404,2376.2568359375,0.6129032373428345,0.4488188922405243,0.7391303777694702,3025.763916015625,0.5862069129943848,1.0,9.999999747378752e-05
0.48648643493652344,3145.0810546875,0.5684210658073425,0.4251968562602997,0.514285683631897,575.3956298828125,0.5,0.529411792755127,9.999999747378752e-05
0.5333333015441895,1896.3448486328125,0.6122449040412903,0.4724409580230713,0.24999995529651642,801.1060791015625,0.4285714328289032,0.1764705926179886,9.999999747378752e-05
0.5526314973831177,1907.2723388671875,0.6237623691558838,0.4960629940032959,0.0,5215.755859375,0.0,0.0,9.999999747378752e-05
0.5089284777641296,2252.71826171875,0.5833333134651184,0.4409448802471161,0.0,1826.47265625,0.0,0.0,9.999999747378752e-05
0.5112106800079346,1562.6361083984375,0.59375,0.4488188922405243,0.0,2919.409423828125,0.0,0.0,9.999999747378752e-05
0.42056068778038025,2223.198486328125,0.517241358757019,0.35433071851730347,0.19999997317790985,993.356689453125,0.6666666865348816,0.11764705926179886,9.999999747378752e-05
0.49090903997421265,999.5926513671875,0.5806451439857483,0.4251968562602997,0.7391303777694702,1779.1485595703125,0.5862069129943848,1.0,9.999999747378752e-05
0.4727272391319275,2942.01123046875,0.5591397881507874,0.4094488322734833,0.7391303777694702,1568.4881591796875,0.5862069129943848,1.0,9.999999747378752e-05
0.41860461235046387,2943.9091796875,0.5113636255264282,0.35433071851730347,0.11111108958721161,1885.4337158203125,1.0,0.05882352963089943,9.999999747378752e-05
0.4862384796142578,3785.147216796875,0.5824176073074341,0.4173228442668915,0.0,2714.549560546875,0.0,0.0,9.999999747378752e-05
0.44239628314971924,2378.527099609375,0.5333333611488342,0.3779527544975281,0.0,2858.8251953125,0.0,0.0,9.999999747378752e-05
0.4444443881511688,2272.306396484375,0.5340909361839294,0.3700787425041199,0.7391303777694702,3276.5283203125,0.5862069129943848,1.0,9.999999747378752e-05
0.5627704858779907,2646.678955078125,0.6310679316520691,0.5118110179901123,0.0,1946.101318359375,0.0,0.0,9.999999747378752e-05
0.5067873001098633,2111.631591796875,0.5957446694374084,0.4409448802471161,0.0,1892.453369140625,0.0,0.0,9.999999747378752e-05
0.5701356530189514,1503.9718017578125,0.6702127456665039,0.4960629940032959,0.4374999403953552,562.046142578125,0.46666666865348816,0.4117647111415863,9.999999747378752e-05
0.5446427464485168,1163.3621826171875,0.6315789222717285,0.4724409580230713,0.7391303777694702,1168.6668701171875,0.5862069129943848,1.0,9.999999747378752e-05
0.5627704858779907,3449.489990234375,0.625,0.5118110179901123,0.0,5372.001953125,0.0,0.0,9.999999747378752e-05
0.5663716793060303,2597.873046875,0.6464646458625793,0.5039370059967041,0.0,2376.24951171875,0.0,0.0,9.999999747378752e-05
0.5688888430595398,1388.0849609375,0.6530612111091614,0.5039370059967041,0.0,2577.514892578125,0.0,0.0,9.999999747378752e-05
0.5446427464485168,1870.72412109375,0.6354166865348816,0.4803149700164795,0.2608695328235626,848.7681884765625,0.5,0.1764705926179886,9.999999747378752e-05
0.42790693044662476,1668.7476806640625,0.517241358757019,0.35433071851730347,0.7391303777694702,1478.499755859375,0.5862069129943848,1.0,9.999999747378752e-05
0.559999942779541,1610.352783203125,0.6391752362251282,0.4881889820098877,0.0,2739.6435546875,0.0,0.0,9.999999747378752e-05
0.5726871490478516,2018.1693115234375,0.6499999761581421,0.5118110179901123,0.19999997317790985,1296.945556640625,0.6666666865348816,0.11764705926179886,9.999999747378752e-05
0.46575337648391724,1463.6629638671875,0.554347813129425,0.4015747904777527,0.19999997317790985,1146.552490234375,0.6666666865348816,0.11764705926179886,9.999999747378752e-05
0.43925225734710693,2223.89794921875,0.5348837375640869,0.36220473051071167,0.7391303777694702,2025.7578125,0.5862069129943848,1.0,9.999999747378752e-05
0.5267856121063232,2461.65478515625,0.6082473993301392,0.4645669162273407,0.514285683631897,575.3123168945312,0.5,0.529411792755127,9.999999747378752e-05
0.5614033937454224,2985.195068359375,0.6336633563041687,0.5039370059967041,0.7391303777694702,966.1928100585938,0.5862069129943848,1.0,9.999999747378752e-05
0.4862384796142578,2677.094482421875,0.5824176073074341,0.4173228442668915,0.47058817744255066,499.70233154296875,0.5,0.47058823704719543,9.999999747378752e-05
0.5044247508049011,1060.091552734375,0.5625,0.4251968562602997,0.6666666269302368,694.7752685546875,0.5600000023841858,0.8235294222831726,9.999999747378752e-05
0.5045044422149658,1370.01025390625,0.585106372833252,0.4330708682537079,0.0,1952.3602294921875,0.0,0.0,9.999999747378752e-05
0.4566209614276886,1424.3167724609375,0.5494505763053894,0.3937007784843445,0.11111108958721161,1552.467529296875,1.0,0.05882352963089943,9.999999747378752e-05
0.5357142090797424,2047.8907470703125,0.6145833134651184,0.4645669162273407,0.7391303777694702,1325.155029296875,0.5862069129943848,1.0,9.999999747378752e-05
0.47926265001296997,1211.820556640625,0.5730336904525757,0.4015747904777527,0.7391303777694702,1954.36328125,0.5862069129943848,1.0,9.999999747378752e-05
0.4999999403953552,2935.3193359375,0.5699999928474426,0.4488188922405243,0.0,3881.57958984375,0.0,0.0,9.999999747378752e-05
0.511415421962738,2027.994384765625,0.6086956262588501,0.4409448802471161,0.1052631363272667,1384.0035400390625,0.5,0.05882352963089943,9.999999747378752e-05
0.5090908408164978,3372.473876953125,0.602150559425354,0.4409448802471161,0.19999997317790985,872.6004638671875,0.6666666865348816,0.11764705926179886,9.999999747378752e-05
0.536796510219574,1592.0328369140625,0.5980392098426819,0.4803149700164795,0.0,2484.318115234375,0.0,0.0,9.999999747378752e-05
0.5233644247055054,2041.1676025390625,0.6436781883239746,0.4409448802471161,0.19999997317790985,1029.093505859375,0.6666666865348816,0.11764705926179886,9.999999747378752e-05
0.543859601020813,1378.654541015625,0.6138613820075989,0.4881889820098877,0.3571428060531616,638.9417724609375,0.4545454680919647,0.29411765933036804,9.999999747378752e-05
0.46296289563179016,1531.0386962890625,0.5568181872367859,0.3858267664909363,0.7391303777694702,1594.89013671875,0.5862069129943848,1.0,9.999999747378752e-05
0.559999942779541,2538.015380859375,0.6428571343421936,0.4960629940032959,0.6818181276321411,679.7799682617188,0.5555555820465088,0.8823529481887817,9.999999747378752e-05
0.5201793313026428,940.3294067382812,0.602150559425354,0.4409448802471161,0.5555555820465088,480.77899169921875,0.5263158082962036,0.5882353186607361,9.999999747378752e-05
0.5541125535964966,1721.0987548828125,0.6116504669189453,0.4960629940032959,0.0,6015.0673828125,0.0,0.0,9.999999747378752e-05
0.5363635420799255,2509.301513671875,0.6344085931777954,0.4645669162273407,0.7391303777694702,1678.151611328125,0.5862069129943848,1.0,9.999999747378752e-05
0.5090908408164978,1793.7933349609375,0.602150559425354,0.4409448802471161,0.7391303777694702,951.8656005859375,0.5862069129943848,1.0,9.999999747378752e-05
0.5044247508049011,1945.486328125,0.5757575631141663,0.4488188922405243,0.0,1988.8603515625,0.0,0.0,9.999999747378752e-05
0.4884791970252991,1621.7098388671875,0.5888888835906982,0.4173228442668915,0.7391303777694702,2132.008544921875,0.5862069129943848,1.0,9.999999747378752e-05
0.37383171916007996,2118.10400390625,0.4597701132297516,0.31496062874794006,0.7391303777694702,3486.60009765625,0.5862069129943848,1.0,9.999999747378752e-05
0.5422222018241882,2714.212158203125,0.6224489808082581,0.4803149700164795,0.7391303777694702,957.8470458984375,0.5862069129943848,1.0,9.999999747378752e-05
0.4932734966278076,3594.83203125,0.5729166865348816,0.4330708682537079,0.0,2196.701416015625,0.0,0.0,9.999999747378752e-05
0.551111102104187,1385.9991455078125,0.6326530575752258,0.4881889820098877,0.27272725105285645,895.63671875,0.75,0.1764705926179886,9.999999747378752e-05
0.49541279673576355,1531.03271484375,0.5888888835906982,0.4173228442668915,0.1052631363272667,1488.540283203125,0.5,0.05882352963089943,9.999999747378752e-05
0.4840182363986969,1374.6722412109375,0.5888888835906982,0.4173228442668915,0.24999995529651642,743.6707763671875,0.4285714328289032,0.1764705926179886,9.999999747378752e-05
0.543859601020813,998.8670654296875,0.6082473993301392,0.4645669162273407,0.1052631363272667,1471.6336669921875,0.5,0.05882352963089943,9.999999747378752e-05
0.4862384796142578,1851.938232421875,0.5824176073074341,0.4173228442668915,0.6511628031730652,692.2024536132812,0.5384615659713745,0.8235294222831726,9.999999747378752e-05
0.5286343097686768,1325.8143310546875,0.6122449040412903,0.4724409580230713,0.29629623889923096,653.1694946289062,0.4444444477558136,0.23529411852359772,9.999999747378752e-05
0.587719202041626,969.6237182617188,0.6633663177490234,0.5275590419769287,0.19999997317790985,1203.853271484375,0.6666666865348816,0.11764705926179886,9.999999747378752e-05
0.5840707421302795,1355.901611328125,0.6666666865348816,0.5196850299835205,0.7391303777694702,888.3095092773438,0.5862069129943848,1.0,9.999999747378752e-05
0.5201793313026428,1155.010986328125,0.6105263233184814,0.4566929042339325,0.0,2228.341552734375,0.0,0.0,9.999999747378752e-05
0.5535714030265808,2428.0615234375,0.6391752362251282,0.4881889820098877,0.29629623889923096,565.5093383789062,0.4000000059604645,0.23529411852359772,9.999999747378752e-05
0.4748857915401459,1038.8656005859375,0.5652173757553101,0.4094488322734833,0.7391303777694702,1267.60107421875,0.5862069129943848,1.0,9.999999747378752e-05
0.49785399436950684,3041.48193359375,0.5471698045730591,0.4566929042339325,0.0,6863.02294921875,0.0,0.0,9.999999747378752e-05
0.333333283662796,3163.33984375,0.557692289352417,0.22834645211696625,0.6511628031730652,579.0843505859375,0.5384615659713745,0.8235294222831726,9.999999747378752e-06
0.5800864696502686,562.917724609375,0.6470588445663452,0.5196850299835205,0.5555555820465088,460.8199462890625,0.5263158082962036,0.5882353186607361,9.999999747378752e-06
0.5240173935890198,549.1790161132812,0.594059407711029,0.4724409580230713,0.3571428060531616,547.43994140625,0.5,0.29411765933036804,9.999999747378752e-06
0.5291479229927063,523.7990112304688,0.6170212626457214,0.4566929042339325,0.3571428060531616,524.2110595703125,0.4545454680919647,0.29411765933036804,9.999999747378752e-06
0.5110131502151489,549.9036254882812,0.585106372833252,0.4330708682537079,0.5555555820465088,473.7743835449219,0.5263158082962036,0.5882353186607361,9.999999747378752e-06
0.5286343097686768,528.159912109375,0.5959596037864685,0.4645669162273407,0.1818181276321411,730.684814453125,0.4000000059604645,0.11764705926179886,9.999999747378752e-06
0.5296803116798401,506.613525390625,0.6304348111152649,0.4566929042339325,0.615384578704834,572.5401000976562,0.5454545617103577,0.7058823704719543,9.999999747378752e-06
0.5381165146827698,484.60565185546875,0.621052622795105,0.4645669162273407,0.615384578704834,571.1537475585938,0.5454545617103577,0.7058823704719543,9.999999747378752e-06
0.5333333015441895,551.6913452148438,0.6170212626457214,0.4566929042339325,0.615384578704834,566.7374877929688,0.5454545617103577,0.7058823704719543,9.999999747378752e-06
0.5764191150665283,471.7159729003906,0.6464646458625793,0.5039370059967041,0.5555555820465088,533.9998779296875,0.5263158082962036,0.5882353186607361,9.999999747378752e-06
0.5374448895454407,530.8351440429688,0.6082473993301392,0.4645669162273407,0.5789473652839661,557.9605102539062,0.523809552192688,0.6470588445663452,9.999999747378752e-06
0.5244444012641907,551.9550170898438,0.6041666865348816,0.4566929042339325,0.5789473652839661,558.9122924804688,0.523809552192688,0.6470588445663452,9.999999747378752e-06
0.5541125535964966,495.90478515625,0.6262626051902771,0.4881889820098877,0.3571428060531616,580.5355834960938,0.4545454680919647,0.29411765933036804,9.999999747378752e-06
0.5089284777641296,491.53070068359375,0.5913978219032288,0.4330708682537079,0.3571428060531616,582.7271118164062,0.4545454680919647,0.29411765933036804,9.999999747378752e-06
0.46445491909980774,601.3070068359375,0.5925925970077515,0.3779527544975281,0.5555555820465088,534.8602294921875,0.5263158082962036,0.5882353186607361,9.999999747378752e-06
0.5175437331199646,495.7133483886719,0.5876288414001465,0.4488188922405243,0.41379305720329285,574.52099609375,0.4545454680919647,0.29411765933036804,9.999999747378752e-06
0.551111102104187,479.1783142089844,0.6315789222717285,0.4724409580230713,0.5714285373687744,523.9971923828125,0.625,0.5882353186607361,9.999999747378752e-06
0.5752211809158325,485.7901306152344,0.6458333134651184,0.4881889820098877,0.3076922595500946,638.55322265625,0.4444444477558136,0.23529411852359772,9.999999747378752e-06
0.5225224494934082,452.5564880371094,0.6063829660415649,0.4488188922405243,0.615384578704834,578.278564453125,0.5454545617103577,0.7058823704719543,9.999999747378752e-06
0.5414846539497375,527.380615234375,0.6200000047683716,0.4881889820098877,0.4666666090488434,561.9004516601562,0.5384615659713745,0.4117647111415863,9.999999747378752e-06
0.4955751299858093,457.56597900390625,0.5773195624351501,0.4409448802471161,0.5555555820465088,530.0675659179688,0.5263158082962036,0.5882353186607361,9.999999747378752e-06
0.5112106800079346,468.043701171875,0.6000000238418579,0.4488188922405243,0.5625,529.6215209960938,0.5714285969734192,0.47058823704719543,9.999999747378752e-06
0.5137614607810974,424.7273254394531,0.6206896305084229,0.4251968562602997,0.5714285373687744,523.9509887695312,0.5555555820465088,0.5882353186607361,9.999999974752427e-07
0.5045044422149658,414.483154296875,0.6086956262588501,0.4409448802471161,0.5555555820465088,530.3184204101562,0.5263158082962036,0.5882353186607361,9.999999974752427e-07
0.5022420883178711,406.8843688964844,0.602150559425354,0.4409448802471161,0.5555555820465088,525.7202758789062,0.5555555820465088,0.5882353186607361,9.999999974752427e-07
0.5701753497123718,412.7757568359375,0.6451612710952759,0.4724409580230713,0.5555555820465088,534.4315795898438,0.5263158082962036,0.5882353186607361,9.999999974752427e-07
0.5201793313026428,412.5200500488281,0.6063829660415649,0.4488188922405243,0.5714285373687744,524.63818359375,0.5555555820465088,0.5882353186607361,9.999999974752427e-07
0.4999999403953552,411.770751953125,0.5729166865348816,0.4330708682537079,0.5714285373687744,524.0254516601562,0.5555555820465088,0.5882353186607361,9.999999974752427e-07
0.5244444012641907,416.0995788574219,0.6041666865348816,0.4566929042339325,0.6060605645179749,523.626708984375,0.625,0.5882353186607361,9.999999974752427e-07
0.5086206197738647,410.25628662109375,0.5841584205627441,0.4645669162273407,0.5161289572715759,535.6697387695312,0.5384615659713745,0.4117647111415863,9.999999974752427e-07
0.46296289563179016,419.2367858886719,0.5476190447807312,0.36220473051071167,0.5161289572715759,530.9254760742188,0.5714285969734192,0.47058823704719543,9.999999974752427e-07
0.5327510833740234,407.9285583496094,0.6000000238418579,0.4724409580230713,0.5161289572715759,530.84423828125,0.5714285969734192,0.47058823704719543,9.999999974752427e-07
