F1Score,loss,precision,recall,val_F1Score,val_loss,val_precision,val_recall,learning_rate
0.4770641624927521,57507.59375,0.5652173757553101,0.4126984179019928,0.6666666269302368,21916.8359375,0.5714285969734192,0.800000011920929,9.999999747378752e-05
0.4700460433959961,22093.794921875,0.5604395866394043,0.4047619104385376,0.5714284777641296,15698.255859375,0.6666666865348816,0.5,9.999999747378752e-05
0.5045044422149658,18227.76171875,0.5833333134651184,0.4444444477558136,0.08695650100708008,31326.298828125,0.3333333432674408,0.05000000074505806,9.999999747378752e-05
0.5022830367088318,20020.078125,0.5913978219032288,0.4365079402923584,0.4374999403953552,17142.9296875,0.5833333134651184,0.3499999940395355,9.999999747378752e-05
0.4834122955799103,18127.30859375,0.6000000238418579,0.4047619104385376,0.7199999690055847,24736.18359375,0.6000000238418579,0.8999999761581421,9.999999747378752e-05
0.5263157486915588,21553.521484375,0.5882353186607361,0.4761904776096344,0.6808509826660156,15723.9521484375,0.5925925970077515,0.800000011920929,9.999999747378752e-05
0.4150942862033844,16452.009765625,0.5116279125213623,0.3492063581943512,0.555555522441864,13458.359375,0.625,0.5,9.999999747378752e-05
0.5155555009841919,23142.712890625,0.5858585834503174,0.460317462682724,0.3448275327682495,16866.33984375,0.5555555820465088,0.25,9.999999747378752e-05
0.49302324652671814,12931.1982421875,0.5955055952072144,0.420634925365448,0.5853658318519592,12532.423828125,0.5714285969734192,0.6000000238418579,9.999999747378752e-05
0.4955751597881317,19090.427734375,0.5600000023841858,0.4444444477558136,0.514285683631897,12630.1640625,0.6000000238418579,0.44999998807907104,9.999999747378752e-05
0.4792626202106476,13853.5576171875,0.5714285969734192,0.4126984179019928,0.0952380895614624,33941.0625,1.0,0.05000000074505806,9.999999747378752e-05
0.5248867869377136,17256.49609375,0.6105263233184814,0.460317462682724,0.4999999403953552,12737.216796875,0.6666666865348816,0.4000000059604645,9.999999747378752e-05
0.5221237540245056,11338.4853515625,0.5899999737739563,0.4682539701461792,0.17391301691532135,22287.40625,0.6666666865348816,0.10000000149011612,9.999999747378752e-05
0.4433961808681488,14214.125,0.5529412031173706,0.3730158805847168,0.7199999690055847,18459.267578125,0.6000000238418579,0.8999999761581421,9.999999747378752e-05
0.520179271697998,24966.009765625,0.5979381203651428,0.460317462682724,0.7083333134651184,12972.8115234375,0.6071428656578064,0.8500000238418579,9.999999747378752e-05
0.43192481994628906,14106.47265625,0.5232558250427246,0.3571428656578064,0.5405404567718506,10475.4033203125,0.5882353186607361,0.5,9.999999747378752e-05
0.5175437927246094,14243.0224609375,0.5784313678741455,0.4682539701461792,0.4848484396934509,11300.9990234375,0.6153846383094788,0.4000000059604645,9.999999747378752e-05
0.44239625334739685,11434.6357421875,0.5274725556373596,0.380952388048172,0.0,41678.74609375,0.0,0.0,9.999999747378752e-05
0.4727272093296051,31752.1171875,0.5531914830207825,0.4126984179019928,0.0,28841.5546875,0.0,0.0,9.999999747378752e-05
0.45192304253578186,16475.541015625,0.5731707215309143,0.3730158805847168,0.6222221255302429,10242.37109375,0.5600000023841858,0.699999988079071,9.999999747378752e-05
0.5391303300857544,15543.9951171875,0.5961538553237915,0.4920634925365448,0.3199999928474426,15392.45703125,0.800000011920929,0.20000000298023224,9.999999747378752e-05
0.43809521198272705,14639.330078125,0.5476190447807312,0.3650793731212616,0.7083333134651184,13580.791015625,0.6071428656578064,0.8500000238418579,9.999999747378752e-05
0.4862384498119354,10743.251953125,0.5760869383811951,0.420634925365448,0.6808509826660156,10729.912109375,0.5925925970077515,0.800000011920929,9.999999747378752e-05
0.5486724972724915,8478.259765625,0.6200000047683716,0.4920634925365448,0.3199999928474426,14603.55078125,0.800000011920929,0.20000000298023224,9.999999747378752e-05
0.5181817412376404,9978.5244140625,0.6063829660415649,0.4523809552192688,0.7083333134651184,12685.3720703125,0.6071428656578064,0.8500000238418579,9.999999747378752e-05
0.46788984537124634,9448.765625,0.554347813129425,0.4047619104385376,0.6808509826660156,10350.2109375,0.5925925970077515,0.800000011920929,9.999999747378752e-05
0.5221237540245056,11315.74609375,0.5899999737739563,0.4682539701461792,0.5789473652839661,8971.1328125,0.6111111044883728,0.550000011920929,9.999999747378752e-05
0.5495495200157166,12340.056640625,0.6354166865348816,0.4841269850730896,0.7346937656402588,12593.4052734375,0.6206896305084229,0.8999999761581421,9.999999747378752e-05
0.49769583344459534,10392.625,0.593406617641449,0.4285714328289032,0.5641025304794312,8723.36328125,0.5789473652839661,0.550000011920929,9.999999747378752e-05
0.4840182065963745,12151.6162109375,0.5698924660682678,0.420634925365448,0.0,21366.255859375,0.0,0.0,9.999999747378752e-05
0.5112107396125793,7419.91845703125,0.5876288414001465,0.4523809552192688,0.6666666269302368,9283.037109375,0.6000000238418579,0.75,9.999999747378752e-05
0.5486724972724915,9752.4111328125,0.6200000047683716,0.4920634925365448,0.5999999642372131,8451.20703125,0.6000000238418579,0.6000000238418579,9.999999747378752e-05
0.44549760222435,9641.4677734375,0.5529412031173706,0.3730158805847168,0.555555522441864,8552.8828125,0.625,0.5,9.999999747378752e-05
0.5446427464485168,7579.02783203125,0.6224489808082581,0.4841269850730896,0.6956521272659302,9481.6259765625,0.6153846383094788,0.800000011920929,9.999999747378752e-05
0.5840708017349243,11493.0302734375,0.6600000262260437,0.523809552192688,0.6956521272659302,9743.3330078125,0.6153846383094788,0.800000011920929,9.999999747378752e-05
0.4999999403953552,9092.8837890625,0.585106372833252,0.4365079402923584,0.6956521272659302,9603.783203125,0.6153846383094788,0.800000011920929,9.999999747378752e-05
0.5357142090797424,6937.6630859375,0.6122449040412903,0.4761904776096344,0.6956521272659302,8908.234375,0.6153846383094788,0.800000011920929,9.999999747378752e-05
0.5405405163764954,9764.63671875,0.625,0.4761904776096344,0.5714284777641296,7995.271484375,0.5454545617103577,0.6000000238418579,9.999999747378752e-05
0.5345621705055237,8219.5927734375,0.6373626589775085,0.460317462682724,0.6363635659217834,8128.2412109375,0.5833333134651184,0.699999988079071,9.999999747378752e-05
0.5638765692710876,5874.91748046875,0.6336633563041687,0.5079365372657776,0.3199999928474426,11545.369140625,0.800000011920929,0.20000000298023224,9.999999747378752e-05
0.5422221422195435,6907.68115234375,0.6161616444587708,0.4841269850730896,0.555555522441864,7944.81689453125,0.625,0.5,9.999999747378752e-05
0.49532705545425415,8804.103515625,0.6022727489471436,0.420634925365448,0.47058817744255066,8067.3408203125,0.5714285969734192,0.4000000059604645,9.999999747378752e-05
0.5663716197013855,11953.9541015625,0.6399999856948853,0.5079365372657776,0.4848484396934509,8088.08349609375,0.6153846383094788,0.4000000059604645,9.999999747378752e-05
0.46728968620300293,14316.2998046875,0.5681818127632141,0.3968254029750824,0.0,22878.54296875,0.0,0.0,9.999999747378752e-05
0.5391303300857544,15336.7451171875,0.5961538553237915,0.4920634925365448,0.0,24102.6328125,0.0,0.0,9.999999747378752e-05
0.46009382605552673,9681.357421875,0.5632184147834778,0.3888888955116272,0.5499999523162842,7522.2265625,0.550000011920929,0.550000011920929,9.999999747378752e-05
0.5840708017349243,5329.291015625,0.6600000262260437,0.523809552192688,0.0,18544.498046875,0.0,0.0,9.999999747378752e-05
0.4859812259674072,8501.3603515625,0.5909090638160706,0.4126984179019928,0.6666666269302368,8079.32666015625,0.6000000238418579,0.75,9.999999747378752e-05
0.4999999403953552,8247.9921875,0.5714285969734192,0.4444444477558136,0.3703703284263611,9707.69140625,0.7142857313156128,0.25,9.999999747378752e-05
0.553571343421936,5332.04248046875,0.6326530575752258,0.4920634925365448,0.307692289352417,9916.720703125,0.6666666865348816,0.20000000298023224,9.999999747378752e-05
0.5046728253364563,8584.205078125,0.6136363744735718,0.4285714328289032,0.5294116735458374,7346.7119140625,0.6428571343421936,0.44999998807907104,9.999999747378752e-05
0.5110132098197937,10078.1123046875,0.5742574334144592,0.460317462682724,0.0,15288.9033203125,0.0,0.0,9.999999747378752e-05
0.49090903997421265,7167.8095703125,0.5744680762290955,0.4285714328289032,0.0,16166.46875,0.0,0.0,9.999999747378752e-05
0.563636302947998,7213.43017578125,0.6595744490623474,0.4920634925365448,0.09090907126665115,11692.169921875,0.5,0.05000000074505806,9.999999747378752e-05
0.5470851063728333,5698.7333984375,0.6288659572601318,0.4841269850730896,0.6666666269302368,6955.85009765625,0.6000000238418579,0.75,9.999999747378752e-05
0.5964912176132202,6184.7001953125,0.6666666865348816,0.5396825671195984,0.7234041690826416,8284.65625,0.6296296119689941,0.8500000238418579,9.999999747378752e-05
0.48847925662994385,5287.720703125,0.5824176073074341,0.420634925365448,0.5405404567718506,6584.783203125,0.5882353186607361,0.5,9.999999747378752e-05
0.5550659894943237,4798.65673828125,0.6237623691558838,0.5,0.3448275327682495,7760.71337890625,0.5555555820465088,0.25,9.999999747378752e-05
0.6071428656578064,8441.876953125,0.6907216310501099,0.5317460298538208,0.3571428060531616,7946.97705078125,0.625,0.25,9.999999747378752e-05
0.5701753497123718,6301.546875,0.6336633563041687,0.5079365372657776,0.5365853309631348,6402.04345703125,0.523809552192688,0.550000011920929,9.999999747378752e-05
0.5429863929748535,6697.00634765625,0.6315789222717285,0.4761904776096344,0.0,14832.8251953125,0.0,0.0,9.999999747378752e-05
0.49074065685272217,7188.791015625,0.5888888835906982,0.420634925365448,0.08695650100708008,10200.3837890625,0.5,0.05000000074505806,9.999999747378752e-05
0.582608699798584,5411.96044921875,0.6470588445663452,0.523809552192688,0.3571428060531616,8058.2568359375,0.625,0.25,9.999999747378752e-05
0.5610859394073486,6577.01318359375,0.6526315808296204,0.4920634925365448,0.6956521272659302,7577.86181640625,0.6153846383094788,0.800000011920929,9.999999747378752e-05
0.559999942779541,4065.591064453125,0.6363636255264282,0.5,0.6956521272659302,6565.7080078125,0.6153846383094788,0.800000011920929,9.999999747378752e-05
0.5903083086013794,4331.634765625,0.6633663177490234,0.5317460298538208,0.5714284777641296,6207.1396484375,0.6666666865348816,0.5,9.999999747378752e-05
0.5675675272941589,4375.07763671875,0.65625,0.5,0.6956521272659302,7900.3427734375,0.6153846383094788,0.800000011920929,9.999999747378752e-05
0.5181817412376404,11571.0234375,0.6063829660415649,0.4523809552192688,0.3448275327682495,7429.177734375,0.5555555820465088,0.25,9.999999747378752e-05
0.5486724972724915,4654.1875,0.6326530575752258,0.4920634925365448,0.6956521272659302,8241.19140625,0.6153846383094788,0.800000011920929,9.999999747378752e-05
0.5339365601539612,4424.1533203125,0.621052622795105,0.4682539701461792,0.7346937656402588,9782.40625,0.6206896305084229,0.8999999761581421,9.999999747378752e-05
0.522522509098053,5792.4775390625,0.6041666865348816,0.460317462682724,0.45161283016204834,6400.6826171875,0.6000000238418579,0.30000001192092896,9.999999747378752e-05
0.5478260517120361,5935.3466796875,0.6057692170143127,0.5,0.09090907126665115,11843.0029296875,0.5,0.05000000074505806,9.999999747378752e-05
0.5462961792945862,5780.73681640625,0.6555555462837219,0.4682539701461792,0.555555522441864,5827.9951171875,0.625,0.5,9.999999747378752e-05
0.5652173757553101,6964.47314453125,0.625,0.5158730149269104,0.5714284777641296,5913.6953125,0.6666666865348816,0.5,9.999999747378752e-05
0.5233644247055054,4977.45361328125,0.6363636255264282,0.4444444477558136,0.5714284777641296,6055.9013671875,0.6666666865348816,0.5,9.999999747378752e-05
0.6026200652122498,4929.5283203125,0.6699029207229614,0.5476190447807312,0.29629626870155334,7565.26416015625,0.5714285969734192,0.20000000298023224,9.999999747378752e-05
0.563636302947998,4271.939453125,0.6595744490623474,0.4920634925365448,0.6666666269302368,5678.9501953125,0.6000000238418579,0.75,9.999999747378752e-05
0.4796379804611206,3781.9580078125,0.557894766330719,0.420634925365448,0.5714284777641296,5706.19482421875,0.6666666865348816,0.5,9.999999747378752e-05
0.5339365601539612,6494.3154296875,0.621052622795105,0.4682539701461792,0.15999996662139893,7705.09765625,0.4000000059604645,0.10000000149011612,9.999999747378752e-05
0.49769583344459534,4521.8291015625,0.593406617641449,0.4285714328289032,0.5128204822540283,5279.13818359375,0.5263158082962036,0.5,9.999999747378752e-05
0.5470851063728333,4478.935546875,0.6288659572601318,0.4841269850730896,0.6956521272659302,6617.63671875,0.6153846383094788,0.800000011920929,9.999999747378752e-05
0.5589519143104553,4771.19287109375,0.6213592290878296,0.5079365372657776,0.5714284777641296,5349.7099609375,0.6666666865348816,0.5,9.999999747378752e-05
0.5739910006523132,3460.890380859375,0.65625,0.5,0.5263157486915588,5109.318359375,0.5555555820465088,0.5,9.999999747378752e-05
0.5866667032241821,2998.660888671875,0.6701030731201172,0.5158730149269104,0.5294116735458374,5456.798828125,0.6428571343421936,0.44999998807907104,9.999999747378752e-05
0.5398229956626892,4654.93994140625,0.6100000143051147,0.4841269850730896,0.5714284777641296,5163.033203125,0.5454545617103577,0.6000000238418579,9.999999747378752e-05
0.553571343421936,5578.46337890625,0.6326530575752258,0.4920634925365448,0.09090907126665115,8643.669921875,0.5,0.05000000074505806,9.999999747378752e-05
0.5701356530189514,4832.998046875,0.6631578803062439,0.5,0.5263157486915588,4956.2890625,0.5555555820465088,0.5,9.999999747378752e-05
0.5462554693222046,3881.271240234375,0.6138613820075989,0.4920634925365448,0.15999996662139893,7245.3759765625,0.4000000059604645,0.10000000149011612,9.999999747378752e-05
0.5046728253364563,6833.96923828125,0.6136363744735718,0.4285714328289032,0.6666666269302368,5108.5966796875,0.6000000238418579,0.75,9.999999747378752e-05
0.5429863929748535,7652.09423828125,0.6276595592498779,0.4682539701461792,0.5128204822540283,4797.20166015625,0.5263158082962036,0.5,9.999999747378752e-05
0.5339365601539612,5156.49609375,0.621052622795105,0.4682539701461792,0.5365853309631348,4800.47998046875,0.523809552192688,0.550000011920929,9.999999747378752e-05
0.59227454662323,3271.9609375,0.6380952596664429,0.5317460298538208,0.5714284777641296,4894.7470703125,0.6666666865348816,0.5,9.999999747378752e-05
0.5714285373687744,4816.46826171875,0.6530612111091614,0.5079365372657776,0.09090907126665115,9966.005859375,0.5,0.05000000074505806,9.999999747378752e-05
0.5866667032241821,4553.05908203125,0.6734693646430969,0.523809552192688,0.7083333134651184,6355.9208984375,0.6071428656578064,0.8500000238418579,9.999999747378752e-05
0.5892856121063232,2951.66748046875,0.6701030731201172,0.5158730149269104,0.2857142388820648,5642.59619140625,0.5,0.20000000298023224,9.999999747378752e-05
0.5486724972724915,3772.667724609375,0.6200000047683716,0.4920634925365448,0.0952380895614624,12523.166015625,1.0,0.05000000074505806,9.999999747378752e-05
0.5882352590560913,5483.62255859375,0.6842105388641357,0.5158730149269104,0.09090907126665115,7150.837890625,0.5,0.05000000074505806,9.999999747378752e-05
0.49315062165260315,5280.61572265625,0.5806451439857483,0.4285714328289032,0.6956521272659302,5209.6513671875,0.6153846383094788,0.800000011920929,9.999999747378752e-05
0.5964912176132202,3073.423095703125,0.6666666865348816,0.5396825671195984,0.6956521272659302,5965.18359375,0.6153846383094788,0.800000011920929,9.999999747378752e-05
0.522522509098053,5110.4033203125,0.6041666865348816,0.460317462682724,0.7346937656402588,8112.458984375,0.6206896305084229,0.8999999761581421,9.999999747378752e-05
0.520179271697998,5950.939453125,0.59375,0.4523809552192688,0.6956521272659302,4843.9697265625,0.6153846383094788,0.800000011920929,9.999999747378752e-05
0.5765765309333801,4016.171630859375,0.6702127456665039,0.5,0.5405404567718506,4498.6943359375,0.5882353186607361,0.5,9.999999747378752e-05
0.582608699798584,5718.322265625,0.6442307829856873,0.5317460298538208,0.5714284777641296,4571.64501953125,0.6666666865348816,0.5,9.999999747378752e-05
0.5545454025268555,3710.04638671875,0.6559139490127563,0.4841269850730896,0.7083333134651184,5860.40234375,0.6071428656578064,0.8500000238418579,9.999999747378752e-05
0.579185426235199,6094.47607421875,0.6736842393875122,0.5079365372657776,0.7346937656402588,7986.73828125,0.6206896305084229,0.8999999761581421,9.999999747378752e-05
0.5800865292549133,6499.08154296875,0.6346153616905212,0.523809552192688,0.4848484396934509,4524.10986328125,0.6153846383094788,0.4000000059604645,9.999999747378752e-05
0.5545454025268555,2747.0087890625,0.6489361524581909,0.4841269850730896,0.5294116735458374,4346.5859375,0.6428571343421936,0.44999998807907104,9.999999747378752e-05
0.553571343421936,5460.88134765625,0.6326530575752258,0.4920634925365448,0.7083333134651184,5844.115234375,0.6071428656578064,0.8500000238418579,9.999999747378752e-05
0.5178571343421936,4473.50830078125,0.5918367505073547,0.460317462682724,0.09090907126665115,8201.6201171875,0.5,0.05000000074505806,9.999999747378752e-05
0.5610859394073486,4658.55908203125,0.6526315808296204,0.4920634925365448,0.7346937656402588,8811.544921875,0.6206896305084229,0.8999999761581421,9.999999747378752e-05
0.5638765692710876,4539.80908203125,0.6399999856948853,0.5079365372657776,0.09090907126665115,9209.59765625,0.5,0.05000000074505806,9.999999747378752e-05
0.5405405163764954,3073.968505859375,0.625,0.4761904776096344,0.3448275327682495,5197.19921875,0.5555555820465088,0.25,9.999999747378752e-05
0.5446427464485168,2524.509765625,0.6288659572601318,0.4841269850730896,0.3999999463558197,4889.7431640625,0.6000000238418579,0.30000001192092896,9.999999747378752e-05
0.5454544425010681,5569.001953125,0.6382978558540344,0.4761904776096344,0.6666666269302368,4217.06298828125,0.6000000238418579,0.75,9.999999747378752e-05
0.5422221422195435,3341.693603515625,0.6161616444587708,0.4841269850730896,0.16666662693023682,5916.88623046875,0.5,0.10000000149011612,9.999999747378752e-05
0.5701356530189514,3137.067138671875,0.6702127456665039,0.5,0.45161283016204834,4518.85888671875,0.6363636255264282,0.3499999940395355,9.999999747378752e-05
0.58620685338974,4133.75048828125,0.6442307829856873,0.5317460298538208,0.22222217917442322,5159.7412109375,0.4285714328289032,0.15000000596046448,9.999999747378752e-05
0.5479451417922974,3470.46826171875,0.6413043737411499,0.4682539701461792,0.6956521272659302,4411.6064453125,0.6153846383094788,0.800000011920929,9.999999747378752e-05
0.5913043022155762,2669.312255859375,0.6666666865348816,0.5396825671195984,0.0952380895614624,12216.138671875,1.0,0.05000000074505806,9.999999747378752e-05
0.5892856121063232,3605.075927734375,0.6734693646430969,0.523809552192688,0.5853658318519592,4171.146484375,0.5714285969734192,0.6000000238418579,9.999999747378752e-05
0.5840708017349243,5055.6376953125,0.6600000262260437,0.523809552192688,0.0,22310.744140625,0.0,0.0,9.999999747378752e-05
0.5624999403953552,10147.6240234375,0.6428571343421936,0.5,0.1538461297750473,5384.61474609375,0.3333333432674408,0.10000000149011612,9.999999747378752e-05
0.5181817412376404,2663.796630859375,0.6063829660415649,0.4523809552192688,0.45161283016204834,4622.3935546875,0.6363636255264282,0.3499999940395355,9.999999747378752e-05
0.5272727012634277,3330.8408203125,0.6170212626457214,0.460317462682724,0.615384578704834,4031.920654296875,0.6315789222717285,0.6000000238418579,9.999999747378752e-05
0.5363635420799255,2496.319091796875,0.6276595592498779,0.4682539701461792,0.6808509826660156,4584.408203125,0.5925925970077515,0.800000011920929,9.999999747378752e-05
0.626086950302124,3806.921630859375,0.692307710647583,0.5714285969734192,0.6808509826660156,5142.6806640625,0.5925925970077515,0.800000011920929,9.999999747378752e-05
0.5624999403953552,3540.027099609375,0.6428571343421936,0.5,0.5853658318519592,3820.703125,0.5714285969734192,0.6000000238418579,9.999999747378752e-05
0.5114154815673828,2479.631591796875,0.602150559425354,0.4444444477558136,0.6808509826660156,5331.3837890625,0.5925925970077515,0.800000011920929,9.999999747378752e-05
0.6079294681549072,2979.3984375,0.6831682920455933,0.5476190447807312,0.45161283016204834,3945.669189453125,0.6363636255264282,0.3499999940395355,9.999999747378752e-05
0.5470851063728333,2617.794921875,0.6288659572601318,0.4841269850730896,0.6818181276321411,3804.31005859375,0.625,0.75,9.999999747378752e-05
0.5866667032241821,2959.799560546875,0.6632652878761292,0.5158730149269104,0.6808509826660156,4631.33984375,0.5925925970077515,0.800000011920929,9.999999747378752e-05
0.587719202041626,2959.495849609375,0.656862735748291,0.5317460298538208,0.5945945382118225,3694.847900390625,0.6470588445663452,0.550000011920929,9.999999747378752e-05
0.5714285373687744,1939.2694091796875,0.6494845151901245,0.5,0.6190475225448608,3684.065673828125,0.5909090638160706,0.6499999761581421,9.999999747378752e-05
0.5511110424995422,4707.89599609375,0.6262626051902771,0.4920634925365448,0.0952380895614624,9904.361328125,1.0,0.05000000074505806,9.999999747378752e-05
0.5321100354194641,2491.821533203125,0.6304348111152649,0.460317462682724,0.6808509826660156,4180.7900390625,0.5925925970077515,0.800000011920929,9.999999747378752e-05
0.5495495200157166,3158.433837890625,0.6354166865348816,0.4841269850730896,0.555555522441864,3516.347900390625,0.625,0.5,9.999999747378752e-05
0.5089285373687744,4181.89697265625,0.581632673740387,0.4523809552192688,0.6808509826660156,4959.7021484375,0.5925925970077515,0.800000011920929,9.999999747378752e-05
0.565022349357605,3696.13330078125,0.6494845151901245,0.5,0.5853658318519592,3556.7626953125,0.5714285969734192,0.6000000238418579,9.999999747378752e-05
0.6026200652122498,2749.70263671875,0.6732673048973083,0.5396825671195984,0.09090907126665115,7085.59521484375,0.5,0.05000000074505806,9.999999747378752e-05
0.5045871138572693,3228.144775390625,0.593406617641449,0.4285714328289032,0.6808509826660156,3936.42041015625,0.5925925970077515,0.800000011920929,9.999999747378752e-05
0.5511110424995422,3152.79638671875,0.6262626051902771,0.4920634925365448,0.45161283016204834,3829.82958984375,0.6363636255264282,0.3499999940395355,9.999999747378752e-05
0.5570775866508484,3003.845947265625,0.6521739363670349,0.4761904776096344,0.6808509826660156,4720.9443359375,0.5925925970077515,0.800000011920929,9.999999747378752e-05
0.553571343421936,3469.898681640625,0.6326530575752258,0.4920634925365448,0.6808509826660156,4180.0341796875,0.5925925970077515,0.800000011920929,9.999999747378752e-05
0.5803570747375488,3148.569091796875,0.6597937941551208,0.5079365372657776,0.6808509826660156,3815.087890625,0.5925925970077515,0.800000011920929,9.999999747378752e-05
0.5614034533500671,3924.544189453125,0.6274510025978088,0.5079365372657776,0.3448275327682495,3899.498046875,0.5555555820465088,0.25,9.999999747378752e-05
0.5437787771224976,2419.96728515625,0.6555555462837219,0.4682539701461792,0.6190475225448608,3366.60546875,0.5714285969734192,0.6000000238418579,9.999999747378752e-05
0.582608699798584,3511.3095703125,0.6407766938209534,0.523809552192688,0.15999996662139893,4951.99853515625,0.4000000059604645,0.10000000149011612,9.999999747378752e-05
0.5345621705055237,2891.60498046875,0.6404494643211365,0.4523809552192688,0.6808509826660156,4535.361328125,0.5925925970077515,0.800000011920929,9.999999747378752e-05
0.5739129781723022,4372.310546875,0.6346153616905212,0.523809552192688,0.5789473652839661,3261.85205078125,0.6111111044883728,0.550000011920929,9.999999747378752e-05
0.6017698645591736,1695.9010009765625,0.6800000071525574,0.5396825671195984,0.6956521272659302,3677.34716796875,0.6153846383094788,0.800000011920929,9.999999747378752e-05
0.5610859394073486,3037.930908203125,0.6526315808296204,0.4920634925365448,0.6956521272659302,3540.11474609375,0.6153846383094788,0.800000011920929,9.999999747378752e-05
0.5752211213111877,1656.70654296875,0.6499999761581421,0.5158730149269104,0.6956521272659302,3684.7080078125,0.6153846383094788,0.800000011920929,9.999999747378752e-05
0.558558464050293,3429.692138671875,0.6458333134651184,0.4920634925365448,0.6808509826660156,4623.21240234375,0.5925925970077515,0.800000011920929,9.999999747378752e-05
0.5267856121063232,3128.3603515625,0.6020408272743225,0.4682539701461792,0.15999996662139893,4809.0478515625,0.4000000059604645,0.10000000149011612,9.999999747378752e-05
0.49549540877342224,2320.692626953125,0.5729166865348816,0.4365079402923584,0.09090907126665115,5673.8515625,0.5,0.05000000074505806,9.999999747378752e-05
0.5116278529167175,3295.2041015625,0.617977499961853,0.4365079402923584,0.6808509826660156,4839.63525390625,0.5925925970077515,0.800000011920929,9.999999747378752e-05
0.5178571343421936,3145.767578125,0.5918367505073547,0.460317462682724,0.29629626870155334,3630.35009765625,0.5714285969734192,0.20000000298023224,9.999999747378752e-05
0.626086950302124,1695.3983154296875,0.692307710647583,0.5714285969734192,0.23076920211315155,3999.054443359375,0.5,0.15000000596046448,9.999999747378752e-05
0.4999999403953552,1958.731201171875,0.6000000238418579,0.4285714328289032,0.6808509826660156,3580.84765625,0.5925925970077515,0.800000011920929,9.999999747378752e-05
0.5739910006523132,2145.666259765625,0.6597937941551208,0.5079365372657776,0.41379308700561523,3380.29443359375,0.6666666865348816,0.30000001192092896,9.999999747378752e-05
0.5462554693222046,3196.68310546875,0.6138613820075989,0.4920634925365448,0.09090907126665115,5994.529296875,0.5,0.05000000074505806,9.999999747378752e-05
0.563636302947998,2211.490234375,0.6595744490623474,0.4920634925365448,0.555555522441864,2993.107177734375,0.6666666865348816,0.5,9.999999747378752e-05
0.5429863929748535,2502.828125,0.6315789222717285,0.4761904776096344,0.4374999403953552,3101.96728515625,0.5833333134651184,0.3499999940395355,9.999999747378752e-05
0.582608699798584,3131.692626953125,0.6407766938209534,0.523809552192688,0.4848484396934509,2975.0283203125,0.6153846383094788,0.4000000059604645,9.999999747378752e-05
0.5296803116798401,1478.670166015625,0.6236559152603149,0.460317462682724,0.6666666269302368,3069.33056640625,0.6000000238418579,0.75,9.999999747378752e-05
0.58620685338974,2871.06201171875,0.6415094137191772,0.5396825671195984,0.08333330601453781,4488.89306640625,0.25,0.05000000074505806,9.999999747378752e-05
0.5412843823432922,2000.226806640625,0.6413043737411499,0.4682539701461792,0.5789473652839661,2865.7939453125,0.6111111044883728,0.550000011920929,9.999999747378752e-05
0.506912350654602,2739.13427734375,0.6043956279754639,0.4365079402923584,0.23076920211315155,3801.71728515625,0.5,0.15000000596046448,9.999999747378752e-05
0.5999999642372131,1532.5382080078125,0.6601941585540771,0.5396825671195984,0.08333330601453781,4273.5439453125,0.25,0.05000000074505806,9.999999747378752e-05
0.5614034533500671,3035.434814453125,0.6237623691558838,0.5,0.08333330601453781,4671.8349609375,0.3333333432674408,0.05000000074505806,9.999999747378752e-05
0.565022349357605,2499.185302734375,0.6494845151901245,0.5,0.45161283016204834,3079.140869140625,0.6363636255264282,0.3499999940395355,9.999999747378752e-05
0.522935688495636,2655.11083984375,0.6195651888847351,0.4523809552192688,0.09090907126665115,6359.607421875,0.5,0.05000000074505806,9.999999747378752e-05
0.5688888430595398,2190.322998046875,0.6464646458625793,0.5079365372657776,0.6808509826660156,4481.97802734375,0.5925925970077515,0.800000011920929,9.999999747378752e-05
0.4818181097507477,6066.87939453125,0.563829779624939,0.420634925365448,0.09090907126665115,5937.9345703125,0.5,0.05000000074505806,9.999999747378752e-05
0.5829596519470215,3147.921630859375,0.6701030731201172,0.5158730149269104,0.6046510934829712,2727.04150390625,0.5652173757553101,0.6499999761581421,9.999999747378752e-05
0.5114154815673828,2725.425537109375,0.602150559425354,0.4444444477558136,0.5789473652839661,2612.728515625,0.6111111044883728,0.550000011920929,9.999999747378752e-05
0.5929203033447266,1343.52880859375,0.6700000166893005,0.5317460298538208,0.6956521272659302,2877.2861328125,0.6153846383094788,0.800000011920929,9.999999747378752e-05
0.625,1106.8603515625,0.7142857313156128,0.5555555820465088,0.6808509826660156,3639.954345703125,0.5925925970077515,0.800000011920929,9.999999747378752e-05
0.5511110424995422,1698.7037353515625,0.6262626051902771,0.4920634925365448,0.15999996662139893,3908.14599609375,0.4000000059604645,0.10000000149011612,9.999999747378752e-05
0.5381165146827698,2476.96826171875,0.625,0.4761904776096344,0.4374999403953552,2778.47314453125,0.5833333134651184,0.3499999940395355,9.999999747378752e-05
0.6133332848548889,1448.56689453125,0.6969696879386902,0.5476190447807312,0.4374999403953552,2644.70166015625,0.5833333134651184,0.3499999940395355,9.999999747378752e-05
0.4792626202106476,2752.951904296875,0.5714285969734192,0.4126984179019928,0.5641025304794312,2523.205078125,0.5789473652839661,0.550000011920929,9.999999747378752e-05
0.5840708017349243,2962.9873046875,0.6600000262260437,0.523809552192688,0.08695650100708008,4215.5224609375,0.3333333432674408,0.05000000074505806,9.999999747378752e-05
0.6320345997810364,1030.3408203125,0.6952381134033203,0.579365074634552,0.29629626870155334,3139.80419921875,0.5714285969734192,0.20000000298023224,9.999999747378752e-05
0.6113535761833191,1299.7694091796875,0.686274528503418,0.5555555820465088,0.08695650100708008,4779.28466796875,0.3333333432674408,0.05000000074505806,9.999999747378752e-05
0.5022830367088318,2157.6572265625,0.5824176073074341,0.420634925365448,0.5999999642372131,2390.64990234375,0.6000000238418579,0.6000000238418579,9.999999747378752e-05
0.5866667032241821,1728.5400390625,0.6666666865348816,0.523809552192688,0.08695650100708008,4241.2958984375,0.3333333432674408,0.05000000074505806,9.999999747378752e-05
0.6052631139755249,1579.9285888671875,0.6764705777168274,0.5476190447807312,0.4242423474788666,2467.9296875,0.5384615659713745,0.3499999940395355,9.999999747378752e-05
0.553571343421936,1675.2674560546875,0.6326530575752258,0.4920634925365448,0.29629626870155334,2849.24462890625,0.5714285969734192,0.20000000298023224,9.999999747378752e-05
0.5739910006523132,2281.642578125,0.6666666865348816,0.5079365372657776,0.6956521272659302,2971.47705078125,0.6153846383094788,0.800000011920929,9.999999747378752e-05
0.5092591643333435,2334.851806640625,0.6111111044883728,0.4365079402923584,0.6808509826660156,3547.543212890625,0.5925925970077515,0.800000011920929,9.999999747378752e-05
0.5789473652839661,1917.7078857421875,0.6399999856948853,0.5079365372657776,0.6956521272659302,2871.21240234375,0.6153846383094788,0.800000011920929,9.999999747378752e-05
0.585152804851532,1687.6593017578125,0.6470588445663452,0.523809552192688,0.6956521272659302,2583.11962890625,0.6153846383094788,0.800000011920929,9.999999747378752e-05
0.5638765692710876,1445.9930419921875,0.6399999856948853,0.5079365372657776,0.09090907126665115,4976.7490234375,0.5,0.05000000074505806,9.999999747378752e-05
0.5701356530189514,1518.9764404296875,0.6631578803062439,0.5,0.23076920211315155,3128.002197265625,0.5,0.15000000596046448,9.999999747378752e-05
0.5752211213111877,1333.44091796875,0.6565656661987305,0.5158730149269104,0.3571428060531616,2657.426513671875,0.625,0.25,9.999999747378752e-05
0.5022830367088318,1904.211669921875,0.5978260636329651,0.4365079402923584,0.29629626870155334,2678.26171875,0.5714285969734192,0.20000000298023224,9.999999747378752e-05
0.6695278286933899,1181.101806640625,0.7428571581840515,0.6190476417541504,0.6956521272659302,2827.612548828125,0.6153846383094788,0.800000011920929,9.999999747378752e-05
0.5248867869377136,1723.3946533203125,0.6105263233184814,0.460317462682724,0.6046510934829712,2248.33935546875,0.5652173757553101,0.6499999761581421,9.999999747378752e-05
0.6133332848548889,1429.896728515625,0.704081654548645,0.5476190447807312,0.6956521272659302,2567.953857421875,0.6153846383094788,0.800000011920929,9.999999747378752e-05
0.5315314531326294,2225.051513671875,0.6145833134651184,0.4682539701461792,0.6808509826660156,2398.6875,0.5925925970077515,0.800000011920929,9.999999747378752e-05
0.6212765574455261,2232.171875,0.6697247624397278,0.579365074634552,0.3999999463558197,2354.364990234375,0.6000000238418579,0.30000001192092896,9.999999747378752e-05
0.4476189911365509,2441.642333984375,0.5595238208770752,0.3730158805847168,0.6808509826660156,2657.668212890625,0.5925925970077515,0.800000011920929,9.999999747378752e-05
0.5315314531326294,2264.713623046875,0.6145833134651184,0.4682539701461792,0.6666666269302368,2236.291259765625,0.6000000238418579,0.75,9.999999747378752e-05
0.5803570747375488,1537.218994140625,0.6632652878761292,0.5158730149269104,0.6808509826660156,2820.909423828125,0.5925925970077515,0.800000011920929,9.999999747378752e-05
0.5333333015441895,2980.521728515625,0.6060606241226196,0.4761904776096344,0.6956521272659302,2073.8876953125,0.6153846383094788,0.800000011920929,9.999999747378752e-05
0.5175437927246094,2396.309814453125,0.5784313678741455,0.4682539701461792,0.23076920211315155,2690.58935546875,0.5,0.15000000596046448,9.999999747378752e-05
0.5070421695709229,1362.3155517578125,0.6162790656089783,0.420634925365448,0.5365853309631348,2046.053466796875,0.5,0.5,9.999999747378752e-05
0.6266093254089355,1637.0086669921875,0.6792452931404114,0.5714285969734192,0.08333330601453781,3159.819091796875,0.25,0.05000000074505806,9.999999747378752e-05
0.4928909242153168,2030.214599609375,0.6117647290229797,0.4126984179019928,0.6956521272659302,2349.083251953125,0.6153846383094788,0.800000011920929,9.999999747378752e-05
0.5866667032241821,2348.498291015625,0.6632652878761292,0.5158730149269104,0.38709673285484314,2155.23291015625,0.5454545617103577,0.30000001192092896,9.999999747378752e-05
0.6026200652122498,1958.4656982421875,0.6699029207229614,0.5476190447807312,0.5499999523162842,1981.3223876953125,0.550000011920929,0.550000011920929,9.999999747378752e-05
0.5945945382118225,1148.783203125,0.6808510422706604,0.5079365372657776,0.6956521272659302,2531.037109375,0.6153846383094788,0.800000011920929,9.999999747378752e-05
0.6437768340110779,993.15673828125,0.698113203048706,0.5873016119003296,0.6956521272659302,2331.287841796875,0.6153846383094788,0.800000011920929,9.999999747378752e-05
0.553571343421936,1374.9478759765625,0.6288659572601318,0.4841269850730896,0.08333330601453781,2910.64794921875,0.25,0.05000000074505806,9.999999747378752e-05
0.5803570747375488,927.8289794921875,0.6632652878761292,0.5158730149269104,0.5128204822540283,1880.3514404296875,0.47058823704719543,0.4000000059604645,9.999999747378752e-05
0.6200873255729675,1040.0260009765625,0.6893203854560852,0.5634920597076416,0.4242423474788666,2037.3258056640625,0.5384615659713745,0.3499999940395355,9.999999747378752e-05
0.5462961792945862,1255.0357666015625,0.6516854166984558,0.460317462682724,0.6363635659217834,1876.4432373046875,0.5833333134651184,0.699999988079071,9.999999747378752e-05
0.655319094657898,2115.822021484375,0.7064220309257507,0.6111111044883728,0.08333330601453781,2725.041015625,0.25,0.05000000074505806,9.999999747378752e-05
0.5504586100578308,1087.5499267578125,0.6521739363670349,0.4761904776096344,0.3999999463558197,2284.30078125,0.6000000238418579,0.30000001192092896,9.999999747378752e-05
0.5478260517120361,1339.01708984375,0.6057692170143127,0.5,0.5128204822540283,1823.36376953125,0.5,0.44999998807907104,9.999999747378752e-05
0.5363635420799255,1982.296142578125,0.6276595592498779,0.4682539701461792,0.6808509826660156,2046.1968994140625,0.6153846383094788,0.800000011920929,9.999999747378752e-05
0.6106194257736206,1131.9102783203125,0.6969696879386902,0.5476190447807312,0.15999996662139893,2255.41162109375,0.4000000059604645,0.10000000149011612,9.999999747378752e-05
0.6071428656578064,781.3172607421875,0.6938775777816772,0.5396825671195984,0.5128204822540283,1715.49951171875,0.5263158082962036,0.5,9.999999747378752e-05
0.6406926512718201,902.1163330078125,0.7058823704719543,0.5714285969734192,0.15999996662139893,2206.37939453125,0.4000000059604645,0.10000000149011612,9.999999747378752e-05
0.6465516686439514,1209.097412109375,0.7019230723381042,0.579365074634552,0.09090907126665115,4064.201171875,0.5,0.05000000074505806,9.999999747378752e-05
0.5296803116798401,1915.3370361328125,0.6236559152603149,0.460317462682724,0.08333330601453781,2700.5859375,0.25,0.05000000074505806,9.999999747378752e-05
0.5454544425010681,1266.7779541015625,0.6382978558540344,0.4761904776096344,0.615384578704834,1590.5615234375,0.6315789222717285,0.6000000238418579,9.999999747378752e-05
0.5575220584869385,1089.54345703125,0.6262626051902771,0.4920634925365448,0.6956521272659302,1745.6246337890625,0.6153846383094788,0.800000011920929,9.999999747378752e-05
0.5714285373687744,1666.9803466796875,0.6530612111091614,0.5079365372657776,0.08695650100708008,3373.503173828125,0.3333333432674408,0.05000000074505806,9.999999747378752e-05
0.5840708017349243,956.5222778320312,0.6597937941551208,0.5079365372657776,0.6956521272659302,1956.3203125,0.6153846383094788,0.800000011920929,9.999999747378752e-05
0.5814977288246155,824.1184692382812,0.6666666865348816,0.523809552192688,0.2857142388820648,2128.964111328125,0.5,0.20000000298023224,9.999999747378752e-05
0.5829596519470215,2300.745361328125,0.6701030731201172,0.5158730149269104,0.09090907126665115,3868.070556640625,0.5,0.05000000074505806,9.999999747378752e-05
0.6120689511299133,892.4715576171875,0.6761904954910278,0.5634920597076416,0.38709673285484314,1815.907470703125,0.5454545617103577,0.30000001192092896,9.999999747378752e-05
0.5955554246902466,664.7338256835938,0.6734693646430969,0.523809552192688,0.333333283662796,1901.13427734375,0.5,0.25,9.999999747378752e-05
0.5662099719047546,1065.023681640625,0.6666666865348816,0.4920634925365448,0.6956521272659302,1773.0469970703125,0.6153846383094788,0.800000011920929,9.999999747378752e-05
0.603448212146759,1457.94189453125,0.6603773832321167,0.5555555820465088,0.2857142388820648,1741.11865234375,0.5,0.20000000298023224,9.999999747378752e-05
0.5248867869377136,1021.607177734375,0.6105263233184814,0.460317462682724,0.333333283662796,1637.410400390625,0.5,0.25,9.999999747378752e-05
0.5955554246902466,1211.1685791015625,0.6836734414100647,0.5317460298538208,0.09090907126665115,3373.866943359375,0.5,0.05000000074505806,9.999999747378752e-05
0.5412843823432922,1434.8544921875,0.6413043737411499,0.4682539701461792,0.08333330601453781,2888.228515625,0.25,0.05000000074505806,9.999999747378752e-05
0.5272727012634277,1204.6903076171875,0.6129032373428345,0.4523809552192688,0.6808509826660156,1899.0443115234375,0.5925925970077515,0.800000011920929,9.999999747378752e-05
0.6008583307266235,1664.87841796875,0.650943398475647,0.5476190447807312,0.08333330601453781,2538.974609375,0.25,0.05000000074505806,9.999999747378752e-05
0.5765765309333801,906.4159545898438,0.6666666865348816,0.5079365372657776,0.6956521272659302,1495.9925537109375,0.6000000238418579,0.75,9.999999747378752e-05
0.5454544425010681,1230.2763671875,0.6382978558540344,0.4761904776096344,0.6808509826660156,2112.153076171875,0.5925925970077515,0.800000011920929,9.999999747378752e-05
0.5974025130271912,978.9827880859375,0.656862735748291,0.5317460298538208,0.08333330601453781,2416.885009765625,0.25,0.05000000074505806,9.999999747378752e-05
0.5803570747375488,732.195556640625,0.6736842393875122,0.5079365372657776,0.5499999523162842,1525.0142822265625,0.5263158082962036,0.5,9.999999747378752e-05
0.5429863929748535,1198.47412109375,0.6315789222717285,0.4761904776096344,0.6956521272659302,1857.35205078125,0.6153846383094788,0.800000011920929,9.999999747378752e-05
0.5903083086013794,1088.29833984375,0.6633663177490234,0.5317460298538208,0.3448275327682495,1870.9918212890625,0.5555555820465088,0.25,9.999999747378752e-05
0.6194689273834229,600.3471069335938,0.699999988079071,0.5555555820465088,0.2857142388820648,1875.152587890625,0.5,0.20000000298023224,9.999999747378752e-05
0.5495495200157166,1127.3902587890625,0.6354166865348816,0.4841269850730896,0.6956521272659302,1718.8236083984375,0.6153846383094788,0.800000011920929,9.999999747378752e-05
0.5855854749679565,1529.9112548828125,0.6770833134651184,0.5158730149269104,0.4999999403953552,1450.91943359375,0.5,0.5,9.999999747378752e-05
0.612765908241272,630.711181640625,0.6666666865348816,0.5714285969734192,0.08333330601453781,2198.91796875,0.25,0.05000000074505806,9.999999747378752e-05
0.6460176706314087,749.5979614257812,0.7300000190734863,0.579365074634552,0.29629626870155334,1491.963623046875,0.5714285969734192,0.20000000298023224,9.999999747378752e-05
0.553571343421936,868.9924926757812,0.6391752362251282,0.4920634925365448,0.2758620083332062,1383.522216796875,0.4444444477558136,0.20000000298023224,9.999999747378752e-05
0.622806966304779,835.0948486328125,0.6960784196853638,0.5634920597076416,0.08333330601453781,2088.14013671875,0.25,0.05000000074505806,9.999999747378752e-05
0.5405405163764954,936.9363403320312,0.625,0.4761904776096344,0.49999988079071045,1251.66259765625,0.5625,0.44999998807907104,9.999999747378752e-05
0.5929203033447266,770.0094604492188,0.6767676472663879,0.5317460298538208,0.38709673285484314,1557.32568359375,0.5454545617103577,0.30000001192092896,9.999999747378752e-05
0.5470851063728333,1027.301513671875,0.625,0.4761904776096344,0.38709673285484314,1605.9080810546875,0.5454545617103577,0.30000001192092896,9.999999747378752e-05
0.5919281840324402,623.2030029296875,0.6804123520851135,0.523809552192688,0.6956521272659302,1565.7667236328125,0.6153846383094788,0.800000011920929,9.999999747378752e-05
0.6200873255729675,617.414306640625,0.6831682920455933,0.5476190447807312,0.6956521272659302,1455.015380859375,0.6153846383094788,0.800000011920929,9.999999747378752e-05
0.6974789500236511,398.3433532714844,0.752293586730957,0.6507936716079712,0.2857142388820648,1659.442138671875,0.5,0.20000000298023224,9.999999747378752e-05
0.6347825527191162,521.2049560546875,0.7029703259468079,0.5634920597076416,0.2857142388820648,1709.5650634765625,0.5,0.20000000298023224,9.999999747378752e-05
0.5405405163764954,925.0906372070312,0.6276595592498779,0.4682539701461792,0.2857142388820648,1561.90771484375,0.5,0.20000000298023224,9.999999747378752e-05
0.6315789222717285,726.5795288085938,0.7029703259468079,0.5634920597076416,0.09090907126665115,2570.947265625,0.5,0.05000000074505806,9.999999747378752e-05
0.6347825527191162,516.2825317382812,0.708737850189209,0.579365074634552,0.6956521272659302,1251.587890625,0.6153846383094788,0.800000011920929,9.999999747378752e-05
0.5955554246902466,1056.055419921875,0.6836734414100647,0.5317460298538208,0.1538461297750473,1756.431884765625,0.3333333432674408,0.10000000149011612,9.999999747378752e-05
0.5726871490478516,889.6406860351562,0.6499999761581421,0.5158730149269104,0.363636314868927,1293.520751953125,0.4615384638309479,0.30000001192092896,9.999999747378752e-05
0.5520361065864563,755.3875122070312,0.6421052813529968,0.4841269850730896,0.5365853309631348,1241.6654052734375,0.523809552192688,0.550000011920929,9.999999747378752e-05
0.6288208961486816,768.9411010742188,0.6990291476249695,0.5714285969734192,0.5365853309631348,1256.5579833984375,0.523809552192688,0.550000011920929,9.999999747378752e-05
0.5638765692710876,842.9180908203125,0.6399999856948853,0.5079365372657776,0.09090907126665115,3156.09619140625,0.5,0.05000000074505806,9.999999747378752e-05
0.6460176706314087,636.089599609375,0.7300000190734863,0.579365074634552,0.2758620083332062,1499.6986083984375,0.4444444477558136,0.20000000298023224,9.999999747378752e-05
0.6079294681549072,701.1852416992188,0.6831682920455933,0.5476190447807312,0.22222217917442322,1648.622802734375,0.4285714328289032,0.15000000596046448,9.999999747378752e-05
0.622806966304779,627.960205078125,0.7070707082748413,0.5555555820465088,0.41176462173461914,1262.41943359375,0.5,0.3499999940395355,9.999999747378752e-05
0.6044443249702454,772.3015747070312,0.6868686676025391,0.5396825671195984,0.08695650100708008,2368.4814453125,0.3333333432674408,0.05000000074505806,9.999999747378752e-05
0.6666666269302368,764.8020629882812,0.7222222089767456,0.6190476417541504,0.09090907126665115,2432.33349609375,0.5,0.05000000074505806,9.999999747378752e-05
0.6724889874458313,1156.8642578125,0.7549019455909729,0.6111111044883728,0.09090907126665115,2184.5947265625,0.5,0.05000000074505806,9.999999747378752e-05
0.5675675272941589,1033.0728759765625,0.6526315808296204,0.4920634925365448,0.6956521272659302,1200.9595947265625,0.6153846383094788,0.800000011920929,9.999999747378752e-05
0.565022349357605,851.6409912109375,0.6494845151901245,0.5,0.4444444179534912,1170.9765625,0.5333333611488342,0.4000000059604645,9.999999747378752e-05
0.6403508186340332,755.8535766601562,0.7156862616539001,0.579365074634552,0.09090907126665115,1894.222900390625,0.5,0.05000000074505806,9.999999747378752e-05
0.5789473652839661,651.0960083007812,0.6435643434524536,0.5158730149269104,0.6956521272659302,1324.4849853515625,0.6153846383094788,0.800000011920929,9.999999747378752e-05
0.5610859394073486,767.294921875,0.6526315808296204,0.4920634925365448,0.333333283662796,1291.078369140625,0.5,0.25,9.999999747378752e-05
0.5982142090797424,606.6045532226562,0.6836734414100647,0.5317460298538208,0.333333283662796,1366.0711669921875,0.5,0.25,9.999999747378752e-05
0.6147185564041138,362.8285827636719,0.6960784196853638,0.5634920597076416,0.7234041690826416,1289.68505859375,0.6296296119689941,0.8500000238418579,9.999999747378752e-05
0.6371681094169617,492.7579650878906,0.7200000286102295,0.5714285969734192,0.3749999403953552,1224.427001953125,0.5,0.30000001192092896,9.999999747378752e-05
0.5688888430595398,726.243408203125,0.6464646458625793,0.5079365372657776,0.3448275327682495,1264.8619384765625,0.5555555820465088,0.25,9.999999747378752e-05
0.6233766078948975,630.759033203125,0.6796116232872009,0.5555555820465088,0.23076920211315155,1362.962646484375,0.5,0.15000000596046448,9.999999747378752e-05
0.525345504283905,863.230712890625,0.6263736486434937,0.4523809552192688,0.23999996483325958,1165.2093505859375,0.6000000238418579,0.15000000596046448,9.999999747378752e-05
0.5575220584869385,519.188720703125,0.6299999952316284,0.5,0.38709673285484314,1160.0390625,0.5454545617103577,0.30000001192092896,9.999999747378752e-05
0.5991188883781433,413.6312561035156,0.6666666865348816,0.523809552192688,0.08695650100708008,1574.669921875,0.3333333432674408,0.05000000074505806,9.999999747378752e-05
0.5610859394073486,910.4848022460938,0.6526315808296204,0.4920634925365448,0.09090907126665115,1940.2232666015625,0.5,0.05000000074505806,9.999999747378752e-05
0.5739910006523132,728.0761108398438,0.6597937941551208,0.5079365372657776,0.5405404567718506,920.802001953125,0.5882353186607361,0.5,9.999999747378752e-05
0.5903083086013794,569.4249267578125,0.6666666865348816,0.523809552192688,0.6363635659217834,1033.21826171875,0.5833333134651184,0.699999988079071,9.999999747378752e-05
0.6347825527191162,380.1945495605469,0.708737850189209,0.579365074634552,0.2857142388820648,1011.3251953125,0.5714285969734192,0.20000000298023224,9.999999747378752e-05
0.6071428656578064,564.7105102539062,0.6907216310501099,0.5317460298538208,0.5641025304794312,814.3299560546875,0.5555555820465088,0.5,9.999999747378752e-05
0.5775861740112305,731.7387084960938,0.6320754885673523,0.5317460298538208,0.16666662693023682,1360.942626953125,0.5,0.10000000149011612,9.999999747378752e-05
0.4739336371421814,792.2891235351562,0.5833333134651184,0.3888888955116272,0.2857142388820648,972.2325439453125,0.5,0.20000000298023224,9.999999747378752e-05
0.6060605049133301,708.04736328125,0.6730769276618958,0.5555555820465088,0.3999999463558197,844.4027099609375,0.5555555820465088,0.25,9.999999747378752e-05
0.5363635420799255,525.2301635742188,0.6344085931777954,0.4682539701461792,0.6956521272659302,843.0656127929688,0.6153846383094788,0.800000011920929,9.999999747378752e-05
0.5446427464485168,528.5925903320312,0.6224489808082581,0.4841269850730896,0.29629626870155334,906.1622314453125,0.5714285969734192,0.20000000298023224,9.999999747378752e-05
0.5315314531326294,688.967041015625,0.6105263233184814,0.460317462682724,0.7111110687255859,776.5689697265625,0.6399999856948853,0.800000011920929,9.999999747378752e-05
