F1Score,loss,precision,recall,val_F1Score,val_loss,val_precision,val_recall,learning_rate
0.6948051452636719,7.90100622177124,0.574999988079071,0.1825396865606308,0.6818181276321411,7.451748371124268,0.20000000298023224,0.05882352963089943,9.999999747378752e-06
0.6900957822799683,7.419641017913818,0.5714285969734192,0.2222222238779068,0.6818181276321411,6.832876205444336,0.3333333432674408,0.11764705926179886,9.999999747378752e-06
0.6920634508132935,7.0755462646484375,0.5862069129943848,0.2698412835597992,0.7111110687255859,6.311122894287109,0.4000000059604645,0.23529411852359772,9.999999747378752e-06
0.6918237805366516,6.796036243438721,0.6000000238418579,0.2857142984867096,0.7111110687255859,5.8819966316223145,0.4000000059604645,0.23529411852359772,9.999999747378752e-06
0.6978192329406738,6.57470178604126,0.6000000238418579,0.3095238208770752,0.7111110687255859,5.5771684646606445,0.4000000059604645,0.23529411852359772,9.999999747378752e-06
0.7018632888793945,6.3776350021362305,0.6000000238418579,0.3571428656578064,0.7111110687255859,5.366418361663818,0.3636363744735718,0.23529411852359772,9.999999747378752e-06
0.6996903419494629,6.285677433013916,0.5874999761581421,0.3730158805847168,0.7111110687255859,5.156867027282715,0.3636363744735718,0.23529411852359772,9.999999747378752e-06
0.7076922655105591,6.165417194366455,0.5813953280448914,0.3968254029750824,0.7111110687255859,5.074620723724365,0.3636363744735718,0.23529411852359772,9.999999747378752e-06
0.7094800472259521,6.101205348968506,0.5862069129943848,0.4047619104385376,0.7111110687255859,4.972130298614502,0.4166666567325592,0.29411765933036804,9.999999747378752e-06
0.7094800472259521,6.043850898742676,0.5806451439857483,0.4285714328289032,0.7111110687255859,4.871636867523193,0.5,0.4117647111415863,9.999999747378752e-06
0.707317054271698,5.990135192871094,0.585106372833252,0.4365079402923584,0.7111110687255859,4.813776969909668,0.5,0.4117647111415863,9.999999747378752e-06
0.711246132850647,5.954934597015381,0.5773195624351501,0.4444444477558136,0.7111110687255859,4.752976894378662,0.5,0.4117647111415863,9.999999747378752e-06
0.711246132850647,5.903275489807129,0.5714285969734192,0.4444444477558136,0.7111110687255859,4.741480350494385,0.5,0.4117647111415863,9.999999747378752e-06
0.711246132850647,5.86423397064209,0.5714285969734192,0.4444444477558136,0.7111110687255859,4.7213945388793945,0.5,0.4117647111415863,9.999999747378752e-06
0.711246132850647,5.84382963180542,0.5699999928474426,0.4523809552192688,0.7111110687255859,4.664387226104736,0.5,0.4117647111415863,9.999999747378752e-06
0.7151514291763306,5.7863311767578125,0.5699999928474426,0.4523809552192688,0.7111110687255859,4.663829803466797,0.5,0.4117647111415863,9.999999747378752e-06
0.7151514291763306,5.747128009796143,0.5699999928474426,0.4523809552192688,0.7111110687255859,4.653454303741455,0.5,0.4117647111415863,9.999999747378752e-06
0.7151514291763306,5.711592674255371,0.5699999928474426,0.4523809552192688,0.7111110687255859,4.639927387237549,0.5,0.4117647111415863,9.999999747378752e-06
0.7151514291763306,5.673072814941406,0.5643564462661743,0.4523809552192688,0.7111110687255859,4.625198841094971,0.5,0.4117647111415863,9.999999747378752e-06
0.7151514291763306,5.639990329742432,0.5699999928474426,0.4523809552192688,0.7111110687255859,4.628403663635254,0.5,0.4117647111415863,9.999999747378752e-06
0.7151514291763306,5.597236633300781,0.5699999928474426,0.4523809552192688,0.7111110687255859,4.61401891708374,0.5,0.4117647111415863,9.999999747378752e-06
0.7151514291763306,5.564066410064697,0.5588235259056091,0.4523809552192688,0.7111110687255859,4.596279621124268,0.5,0.4117647111415863,9.999999747378752e-06
0.7151514291763306,5.52576208114624,0.5631067752838135,0.460317462682724,0.7111110687255859,4.5845947265625,0.5625,0.529411792755127,9.999999747378752e-06
0.7151514291763306,5.487931728363037,0.5631067752838135,0.460317462682724,0.7111110687255859,4.585348129272461,0.5333333611488342,0.47058823704719543,9.999999747378752e-06
0.7151514291763306,5.453217506408691,0.567307710647583,0.4682539701461792,0.7111110687255859,4.571425914764404,0.5333333611488342,0.47058823704719543,9.999999747378752e-06
0.7151514291763306,5.414821624755859,0.5728155374526978,0.4682539701461792,0.7111110687255859,4.562731742858887,0.5625,0.529411792755127,9.999999747378752e-06
0.7151514291763306,5.37807559967041,0.5686274766921997,0.460317462682724,0.7111110687255859,4.562381267547607,0.5333333611488342,0.47058823704719543,9.999999747378752e-06
0.7151514291763306,5.347043514251709,0.5757575631141663,0.4523809552192688,0.7111110687255859,4.566836833953857,0.5333333611488342,0.47058823704719543,9.999999747378752e-06
0.7151514291763306,5.307210445404053,0.5757575631141663,0.4523809552192688,0.7111110687255859,4.549059867858887,0.5333333611488342,0.47058823704719543,9.999999747378752e-06
0.7151514291763306,5.286427974700928,0.5769230723381042,0.4761904776096344,0.7391303777694702,4.514781951904297,0.5625,0.529411792755127,9.999999747378752e-06
0.7151514291763306,5.240940093994141,0.5809524059295654,0.4841269850730896,0.7391303777694702,4.5069732666015625,0.5625,0.529411792755127,9.999999747378752e-06
0.7151514291763306,5.202876091003418,0.5809524059295654,0.4841269850730896,0.7391303777694702,4.5048017501831055,0.5625,0.529411792755127,9.999999747378752e-06
0.7151514291763306,5.166378498077393,0.5769230723381042,0.4761904776096344,0.7391303777694702,4.517096996307373,0.5,0.4117647111415863,9.999999747378752e-06
0.7151514291763306,5.134572982788086,0.5899999737739563,0.4682539701461792,0.7391303777694702,4.512185096740723,0.5,0.4117647111415863,9.999999747378752e-06
0.7151514291763306,5.110194206237793,0.5876288414001465,0.4523809552192688,0.7391303777694702,4.5172014236450195,0.5,0.4117647111415863,9.999999747378752e-06
0.7151514291763306,5.067954063415527,0.6000000238418579,0.4761904776096344,0.7391303777694702,4.49124002456665,0.5333333611488342,0.47058823704719543,9.999999747378752e-06
0.7151514291763306,5.032601356506348,0.5882353186607361,0.4761904776096344,0.7391303777694702,4.4902567863464355,0.5,0.4117647111415863,9.999999747378752e-06
0.7151514291763306,4.998729705810547,0.5961538553237915,0.4920634925365448,0.7391303777694702,4.481734752655029,0.5,0.4117647111415863,9.999999747378752e-06
0.7190331816673279,4.964354515075684,0.5961538553237915,0.4920634925365448,0.7391303777694702,4.464245796203613,0.5333333611488342,0.47058823704719543,9.999999747378752e-06
0.7190331816673279,4.93313455581665,0.5961538553237915,0.4920634925365448,0.7391303777694702,4.473087310791016,0.5,0.4117647111415863,9.999999747378752e-06
0.7190331816673279,4.897640228271484,0.603960394859314,0.4841269850730896,0.7391303777694702,4.465294361114502,0.5,0.4117647111415863,9.999999747378752e-06
0.7190331816673279,4.866500377655029,0.603960394859314,0.4841269850730896,0.7391303777694702,4.4524431228637695,0.5,0.4117647111415863,9.999999747378752e-06
0.7190331816673279,4.830662727355957,0.5980392098426819,0.4841269850730896,0.7391303777694702,4.452058792114258,0.5,0.4117647111415863,9.999999747378752e-06
0.7190331816673279,4.8073930740356445,0.6122449040412903,0.4761904776096344,0.7391303777694702,4.464202880859375,0.5,0.4117647111415863,9.999999747378752e-06
0.7190331816673279,4.768844127655029,0.6185566782951355,0.4761904776096344,0.7391303777694702,4.4509782791137695,0.5,0.4117647111415863,9.999999747378752e-06
0.7228915691375732,4.735146999359131,0.6122449040412903,0.4761904776096344,0.7391303777694702,4.436180591583252,0.5,0.4117647111415863,9.999999747378752e-06
0.7228915691375732,4.707643032073975,0.6138613820075989,0.4920634925365448,0.7391303777694702,4.419847011566162,0.5333333611488342,0.47058823704719543,9.999999747378752e-06
0.7267267107963562,4.678038120269775,0.6138613820075989,0.4920634925365448,0.7391303777694702,4.4120707511901855,0.5333333611488342,0.47058823704719543,9.999999747378752e-06
0.7267267107963562,4.644091606140137,0.6057692170143127,0.5,0.7391303777694702,4.389603614807129,0.5333333611488342,0.47058823704719543,9.999999747378752e-06
0.7245508432388306,4.6189985275268555,0.6116504669189453,0.5,0.7391303777694702,4.394090175628662,0.5333333611488342,0.47058823704719543,9.999999747378752e-06
0.7245508432388306,4.585498332977295,0.6116504669189453,0.5,0.7391303777694702,4.379331111907959,0.5333333611488342,0.47058823704719543,9.999999747378752e-06
0.7245508432388306,4.5553765296936035,0.6116504669189453,0.5,0.7391303777694702,4.372053623199463,0.5333333611488342,0.47058823704719543,9.999999747378752e-06
0.7245508432388306,4.524552822113037,0.6176470518112183,0.5,0.7391303777694702,4.385849952697754,0.5333333611488342,0.47058823704719543,9.999999747378752e-06
0.7245508432388306,4.495261192321777,0.6176470518112183,0.5,0.7391303777694702,4.38681173324585,0.5333333611488342,0.47058823704719543,9.999999747378752e-06
0.7245508432388306,4.464258193969727,0.6237623691558838,0.5,0.7391303777694702,4.385598659515381,0.5,0.4117647111415863,9.999999747378752e-06
0.7245508432388306,4.437774181365967,0.6299999952316284,0.5,0.7391303777694702,4.381213665008545,0.5,0.4117647111415863,9.999999747378752e-06
0.7245508432388306,4.410029411315918,0.625,0.4761904776096344,0.7391303777694702,4.38468074798584,0.5,0.4117647111415863,9.999999747378752e-06
0.7245508432388306,4.376382350921631,0.6262626051902771,0.4920634925365448,0.7391303777694702,4.363521575927734,0.5333333611488342,0.47058823704719543,9.999999747378752e-06
0.7245508432388306,4.348846435546875,0.6237623691558838,0.5,0.7391303777694702,4.353180885314941,0.5333333611488342,0.47058823704719543,9.999999747378752e-06
0.7245508432388306,4.321595668792725,0.6161616444587708,0.4841269850730896,0.7391303777694702,4.3641438484191895,0.5,0.4117647111415863,9.999999747378752e-06
0.7245508432388306,4.29241943359375,0.621052622795105,0.4682539701461792,0.7391303777694702,4.35985803604126,0.5,0.4117647111415863,9.999999747378752e-06
0.7245508432388306,4.264945983886719,0.6161616444587708,0.4841269850730896,0.7391303777694702,4.333758354187012,0.5333333611488342,0.47058823704719543,9.999999747378752e-06
0.7245508432388306,4.234894275665283,0.6213592290878296,0.5079365372657776,0.7391303777694702,4.326989650726318,0.5333333611488342,0.47058823704719543,9.999999747378752e-06
0.7245508432388306,4.213162422180176,0.6095238327980042,0.5079365372657776,0.7391303777694702,4.310230731964111,0.5333333611488342,0.47058823704719543,9.999999747378752e-06
0.7245508432388306,4.1825666427612305,0.6095238327980042,0.5079365372657776,0.7391303777694702,4.3112335205078125,0.5333333611488342,0.47058823704719543,9.999999747378752e-06
0.7245508432388306,4.154697895050049,0.6213592290878296,0.5079365372657776,0.7391303777694702,4.302186965942383,0.5333333611488342,0.47058823704719543,9.999999747378752e-06
0.7283581495285034,4.128554344177246,0.6095238327980042,0.5079365372657776,0.7391303777694702,4.303396224975586,0.5333333611488342,0.47058823704719543,9.999999747378752e-06
0.7283581495285034,4.105661869049072,0.6190476417541504,0.5158730149269104,0.7391303777694702,4.2873406410217285,0.5333333611488342,0.47058823704719543,9.999999747378752e-06
0.7283581495285034,4.076013088226318,0.6132075190544128,0.5158730149269104,0.7391303777694702,4.284289360046387,0.5,0.47058823704719543,9.999999747378752e-06
0.7283581495285034,4.049437999725342,0.6116504669189453,0.5,0.7391303777694702,4.301407337188721,0.5333333611488342,0.47058823704719543,9.999999747378752e-06
0.7283581495285034,4.020816326141357,0.6161616444587708,0.4841269850730896,0.7391303777694702,4.301121711730957,0.5333333611488342,0.47058823704719543,9.999999747378752e-06
0.7283581495285034,3.9954121112823486,0.6288659572601318,0.4841269850730896,0.7391303777694702,4.296952724456787,0.5,0.4117647111415863,9.999999747378752e-06
0.7321428656578064,3.9637973308563232,0.6138613820075989,0.4920634925365448,0.7391303777694702,4.2772297859191895,0.5333333611488342,0.47058823704719543,9.999999747378752e-06
0.7321428656578064,3.9435176849365234,0.6153846383094788,0.5079365372657776,0.7391303777694702,4.259487152099609,0.5,0.47058823704719543,9.999999747378752e-06
0.7321428656578064,3.911933422088623,0.6213592290878296,0.5079365372657776,0.7391303777694702,4.272136688232422,0.5333333611488342,0.47058823704719543,9.999999747378752e-06
0.7321428656578064,3.898810625076294,0.6391752362251282,0.4920634925365448,0.7391303777694702,4.293182849884033,0.5,0.4117647111415863,9.999999747378752e-06
0.7321428656578064,3.8608040809631348,0.6262626051902771,0.4920634925365448,0.7391303777694702,4.272953987121582,0.5,0.4117647111415863,9.999999747378752e-06
0.7321428656578064,3.836339235305786,0.6200000047683716,0.4920634925365448,0.7391303777694702,4.261298656463623,0.5,0.4117647111415863,9.999999747378752e-06
0.7321428656578064,3.809626817703247,0.6237623691558838,0.5,0.7391303777694702,4.253939151763916,0.5,0.4117647111415863,9.999999747378752e-06
0.7321428656578064,3.784480571746826,0.6237623691558838,0.5,0.7391303777694702,4.241734027862549,0.5,0.4117647111415863,9.999999747378752e-06
0.7321428656578064,3.7590858936309814,0.6299999952316284,0.5,0.7391303777694702,4.233438014984131,0.5333333611488342,0.47058823704719543,9.999999747378752e-06
0.7359049320220947,3.738630771636963,0.6299999952316284,0.5,0.7391303777694702,4.2388787269592285,0.5,0.4117647111415863,9.999999747378752e-06
0.7359049320220947,3.7082598209381104,0.6336633563041687,0.5079365372657776,0.7391303777694702,4.212953090667725,0.5,0.47058823704719543,9.999999747378752e-06
0.7359049320220947,3.684600591659546,0.6190476417541504,0.5158730149269104,0.7391303777694702,4.208384990692139,0.5,0.47058823704719543,9.999999747378752e-06
0.7359049320220947,3.6631946563720703,0.6274510025978088,0.5079365372657776,0.7391303777694702,4.213603973388672,0.46666666865348816,0.4117647111415863,9.999999747378752e-06
0.7359049320220947,3.634960651397705,0.6274510025978088,0.5079365372657776,0.7391303777694702,4.208655834197998,0.46666666865348816,0.4117647111415863,9.999999747378752e-06
0.7359049320220947,3.6095287799835205,0.6262626051902771,0.4920634925365448,0.7391303777694702,4.210997581481934,0.5,0.4117647111415863,9.999999747378752e-06
0.7359049320220947,3.591684341430664,0.6274510025978088,0.5079365372657776,0.7391303777694702,4.194188117980957,0.5,0.47058823704719543,9.999999747378752e-06
0.7359049320220947,3.560741662979126,0.6336633563041687,0.5079365372657776,0.7391303777694702,4.192624092102051,0.46666666865348816,0.4117647111415863,9.999999747378752e-06
0.7359049320220947,3.536646604537964,0.6299999952316284,0.5,0.7391303777694702,4.18428897857666,0.46666666865348816,0.4117647111415863,9.999999747378752e-06
0.7359049320220947,3.512343645095825,0.6326530575752258,0.4920634925365448,0.7391303777694702,4.204059600830078,0.5,0.4117647111415863,9.999999747378752e-06
0.7359049320220947,3.484947681427002,0.6326530575752258,0.4920634925365448,0.7391303777694702,4.197393417358398,0.5,0.4117647111415863,9.999999747378752e-06
0.7359049320220947,3.4619290828704834,0.6458333134651184,0.4920634925365448,0.7391303777694702,4.203466415405273,0.5,0.4117647111415863,9.999999747378752e-06
0.7359049320220947,3.4378554821014404,0.6526315808296204,0.4920634925365448,0.7391303777694702,4.19318151473999,0.5,0.4117647111415863,9.999999747378752e-06
0.7359049320220947,3.416173219680786,0.6391752362251282,0.4920634925365448,0.7391303777694702,4.179754257202148,0.5,0.4117647111415863,9.999999747378752e-06
0.7359049320220947,3.3887970447540283,0.6391752362251282,0.4920634925365448,0.7391303777694702,4.1689887046813965,0.46666666865348816,0.4117647111415863,9.999999747378752e-06
0.7359049320220947,3.3675382137298584,0.6326530575752258,0.4920634925365448,0.7391303777694702,4.167784214019775,0.46666666865348816,0.4117647111415863,9.999999747378752e-06
0.7359049320220947,3.3426408767700195,0.6326530575752258,0.4920634925365448,0.7391303777694702,4.15582275390625,0.46666666865348816,0.4117647111415863,9.999999747378752e-06
0.7359049320220947,3.328646421432495,0.6326530575752258,0.4920634925365448,0.7391303777694702,4.1596760749816895,0.46666666865348816,0.4117647111415863,9.999999747378752e-06
0.7359049320220947,3.298844575881958,0.6363636255264282,0.5,0.7391303777694702,4.135226726531982,0.46666666865348816,0.4117647111415863,9.999999747378752e-06
0.7359049320220947,3.277709484100342,0.6470588445663452,0.523809552192688,0.7391303777694702,4.1287689208984375,0.46666666865348816,0.4117647111415863,9.999999747378752e-06
0.7359049320220947,3.2613508701324463,0.6363636255264282,0.5,0.7391303777694702,4.140872478485107,0.46666666865348816,0.4117647111415863,9.999999747378752e-06
0.7359049320220947,3.2388243675231934,0.6435643434524536,0.5158730149269104,0.7391303777694702,4.118171215057373,0.46666666865348816,0.4117647111415863,9.999999747378752e-06
0.7359049320220947,3.209536552429199,0.6363636255264282,0.5,0.7391303777694702,4.135408401489258,0.46666666865348816,0.4117647111415863,9.999999747378752e-06
0.7359049320220947,3.186797857284546,0.6391752362251282,0.4920634925365448,0.7391303777694702,4.130014896392822,0.46666666865348816,0.4117647111415863,9.999999747378752e-06
0.7337278127670288,3.168902635574341,0.6399999856948853,0.5079365372657776,0.7391303777694702,4.110968589782715,0.46666666865348816,0.4117647111415863,9.999999747378752e-06
0.7337278127670288,3.144500494003296,0.6504854559898376,0.5317460298538208,0.7391303777694702,4.10881233215332,0.46666666865348816,0.4117647111415863,9.999999747378752e-06
0.7337278127670288,3.123823642730713,0.6428571343421936,0.5,0.7391303777694702,4.122013092041016,0.46666666865348816,0.4117647111415863,9.999999747378752e-06
0.7337278127670288,3.1004295349121094,0.6428571343421936,0.5,0.7391303777694702,4.113903999328613,0.46666666865348816,0.4117647111415863,9.999999747378752e-06
0.7337278127670288,3.0810210704803467,0.6428571343421936,0.5,0.7391303777694702,4.106654167175293,0.46666666865348816,0.4117647111415863,9.999999747378752e-06
0.7337278127670288,3.0638763904571533,0.6428571343421936,0.5,0.7391303777694702,4.11216926574707,0.46666666865348816,0.4117647111415863,9.999999747378752e-06
0.7337278127670288,3.038327217102051,0.6399999856948853,0.5079365372657776,0.7391303777694702,4.084558010101318,0.46666666865348816,0.4117647111415863,9.999999747378752e-06
0.7337278127670288,3.0180201530456543,0.6571428775787354,0.5476190447807312,0.7391303777694702,4.074521064758301,0.46666666865348816,0.4117647111415863,9.999999747378752e-06
0.7337278127670288,2.9952778816223145,0.6603773832321167,0.5555555820465088,0.7391303777694702,4.075667858123779,0.46666666865348816,0.4117647111415863,9.999999747378752e-06
0.7337278127670288,2.9776079654693604,0.656862735748291,0.5317460298538208,0.7391303777694702,4.081264972686768,0.46666666865348816,0.4117647111415863,9.999999747378752e-06
0.7337278127670288,2.9544498920440674,0.6534653306007385,0.523809552192688,0.7391303777694702,4.087701797485352,0.46666666865348816,0.4117647111415863,9.999999747378752e-06
0.7337278127670288,2.9376885890960693,0.6499999761581421,0.5158730149269104,0.7391303777694702,4.083792209625244,0.46666666865348816,0.4117647111415863,9.999999747378752e-06
0.7337278127670288,2.915311336517334,0.6534653306007385,0.523809552192688,0.7391303777694702,4.070553302764893,0.46666666865348816,0.4117647111415863,9.999999747378752e-06
0.7337278127670288,2.897822141647339,0.6698113083839417,0.5634920597076416,0.7391303777694702,4.05471658706665,0.46666666865348816,0.4117647111415863,9.999999747378752e-06
0.7337278127670288,2.872206926345825,0.6603773832321167,0.5555555820465088,0.7391303777694702,4.0589919090271,0.46666666865348816,0.4117647111415863,9.999999747378752e-06
0.7337278127670288,2.854489803314209,0.6666666865348816,0.5396825671195984,0.7391303777694702,4.062258243560791,0.46666666865348816,0.4117647111415863,9.999999747378752e-06
0.7337278127670288,2.833853006362915,0.6634615659713745,0.5476190447807312,0.7391303777694702,4.043322563171387,0.46666666865348816,0.4117647111415863,9.999999747378752e-06
0.7337278127670288,2.819272994995117,0.6666666865348816,0.5555555820465088,0.7391303777694702,4.056272983551025,0.46666666865348816,0.4117647111415863,9.999999747378752e-06
0.7337278127670288,2.7947683334350586,0.6634615659713745,0.5476190447807312,0.7391303777694702,4.0309672355651855,0.46666666865348816,0.4117647111415863,9.999999747378752e-06
0.7337278127670288,2.7748844623565674,0.663551390171051,0.5634920597076416,0.7391303777694702,4.022706985473633,0.46666666865348816,0.4117647111415863,9.999999747378752e-06
0.7337278127670288,2.7572953701019287,0.6603773832321167,0.5555555820465088,0.7391303777694702,4.025417327880859,0.46666666865348816,0.4117647111415863,9.999999747378752e-06
0.7337278127670288,2.740405559539795,0.6666666865348816,0.5555555820465088,0.7391303777694702,4.020620346069336,0.46666666865348816,0.4117647111415863,9.999999747378752e-06
0.7337278127670288,2.72060489654541,0.6698113083839417,0.5634920597076416,0.7391303777694702,4.003997802734375,0.46666666865348816,0.4117647111415863,9.999999747378752e-06
0.7337278127670288,2.7001354694366455,0.6574074029922485,0.5634920597076416,0.7391303777694702,4.001059055328369,0.46666666865348816,0.4117647111415863,9.999999747378752e-06
0.7337278127670288,2.6850833892822266,0.6698113083839417,0.5634920597076416,0.7391303777694702,4.0072922706604,0.46666666865348816,0.4117647111415863,9.999999747378752e-06
0.7337278127670288,2.663059711456299,0.6698113083839417,0.5634920597076416,0.7391303777694702,4.000946998596191,0.46666666865348816,0.4117647111415863,9.999999747378752e-06
0.7337278127670288,2.647418737411499,0.663551390171051,0.5634920597076416,0.7391303777694702,3.9900765419006348,0.46666666865348816,0.4117647111415863,9.999999747378752e-06
0.7337278127670288,2.6262731552124023,0.6698113083839417,0.5634920597076416,0.7391303777694702,3.991145610809326,0.46666666865348816,0.4117647111415863,9.999999747378752e-06
0.7337278127670288,2.6074438095092773,0.6698113083839417,0.5634920597076416,0.7391303777694702,3.992720127105713,0.46666666865348816,0.4117647111415863,9.999999747378752e-06
0.7337278127670288,2.5915756225585938,0.6730769276618958,0.5555555820465088,0.7391303777694702,3.9812347888946533,0.46666666865348816,0.4117647111415863,9.999999747378752e-06
0.7337278127670288,2.572563648223877,0.6761904954910278,0.5634920597076416,0.7391303777694702,3.977105140686035,0.46666666865348816,0.4117647111415863,9.999999747378752e-06
0.7337278127670288,2.554871082305908,0.6761904954910278,0.5634920597076416,0.7391303777694702,3.970553398132324,0.4375,0.4117647111415863,9.999999747378752e-06
0.7337278127670288,2.5392844676971436,0.663551390171051,0.5634920597076416,0.7391303777694702,3.9586846828460693,0.4375,0.4117647111415863,9.999999747378752e-06
0.7337278127670288,2.521850347518921,0.663551390171051,0.5634920597076416,0.7391303777694702,3.95538067817688,0.4375,0.4117647111415863,9.999999747378752e-06
0.7337278127670288,2.501826763153076,0.6698113083839417,0.5634920597076416,0.7391303777694702,3.959630250930786,0.4375,0.4117647111415863,9.999999747378752e-06
0.7337278127670288,2.4897994995117188,0.6893203854560852,0.5634920597076416,0.7391303777694702,3.968855381011963,0.46666666865348816,0.4117647111415863,9.999999747378752e-06
0.7337278127670288,2.469942569732666,0.682692289352417,0.5634920597076416,0.7391303777694702,3.9515373706817627,0.4375,0.4117647111415863,9.999999747378752e-06
0.7374630570411682,2.454087018966675,0.6698113083839417,0.5634920597076416,0.7391303777694702,3.939699172973633,0.4375,0.4117647111415863,9.999999747378752e-06
0.7374630570411682,2.431755304336548,0.682692289352417,0.5634920597076416,0.7391303777694702,3.9490578174591064,0.4375,0.4117647111415863,9.999999747378752e-06
0.7374630570411682,2.4231879711151123,0.6730769276618958,0.5555555820465088,0.7391303777694702,3.932541847229004,0.4375,0.4117647111415863,9.999999747378752e-06
0.7374630570411682,2.4001760482788086,0.6792452931404114,0.5714285969734192,0.7391303777694702,3.9323318004608154,0.4375,0.4117647111415863,9.999999747378752e-06
0.7374630570411682,2.386030673980713,0.6857143044471741,0.5714285969734192,0.7391303777694702,3.921999216079712,0.4375,0.4117647111415863,9.999999747378752e-06
0.7374630570411682,2.368468761444092,0.6822429895401001,0.579365074634552,0.7391303777694702,3.9150891304016113,0.4375,0.4117647111415863,9.999999747378752e-06
0.7374630570411682,2.348820447921753,0.6886792182922363,0.579365074634552,0.7391303777694702,3.9075241088867188,0.4375,0.4117647111415863,9.999999747378752e-06
0.7374630570411682,2.3330328464508057,0.6886792182922363,0.579365074634552,0.7391303777694702,3.9031803607940674,0.4375,0.4117647111415863,9.999999747378752e-06
0.7374630570411682,2.3166582584381104,0.6886792182922363,0.579365074634552,0.7391303777694702,3.898343801498413,0.4375,0.4117647111415863,9.999999747378752e-06
0.7374630570411682,2.3025689125061035,0.6857143044471741,0.5714285969734192,0.7391303777694702,3.896275281906128,0.4375,0.4117647111415863,9.999999747378752e-06
0.7374630570411682,2.2840662002563477,0.6857143044471741,0.5714285969734192,0.7391303777694702,3.8844730854034424,0.4375,0.4117647111415863,9.999999747378752e-06
0.7374630570411682,2.268101692199707,0.699999988079071,0.6111111044883728,0.7391303777694702,3.894946813583374,0.4375,0.4117647111415863,9.999999747378752e-06
0.7374630570411682,2.25300669670105,0.6990291476249695,0.5714285969734192,0.7391303777694702,3.8992793560028076,0.4375,0.4117647111415863,9.999999747378752e-06
0.7374630570411682,2.2406201362609863,0.6990291476249695,0.5714285969734192,0.7391303777694702,3.8950858116149902,0.4375,0.4117647111415863,9.999999747378752e-06
0.7374630570411682,2.220712423324585,0.6990291476249695,0.5714285969734192,0.7391303777694702,3.8833680152893066,0.4375,0.4117647111415863,9.999999747378752e-06
0.741176426410675,2.2032880783081055,0.6952381134033203,0.579365074634552,0.7391303777694702,3.8672423362731934,0.4375,0.4117647111415863,9.999999747378752e-06
0.741176426410675,2.185927629470825,0.7009345889091492,0.5952380895614624,0.7391303777694702,3.8716936111450195,0.4375,0.4117647111415863,9.999999747378752e-06
0.7374630570411682,2.173849582672119,0.7115384340286255,0.5873016119003296,0.7391303777694702,3.8864684104919434,0.4375,0.4117647111415863,9.999999747378752e-06
0.741176426410675,2.1580893993377686,0.7128713130950928,0.5714285969734192,0.7391303777694702,3.880728244781494,0.4375,0.4117647111415863,9.999999747378752e-06
0.741176426410675,2.1411945819854736,0.7115384340286255,0.5873016119003296,0.7391303777694702,3.859752893447876,0.4375,0.4117647111415863,9.999999747378752e-06
0.741176426410675,2.1232450008392334,0.7155963182449341,0.6190476417541504,0.7391303777694702,3.855782985687256,0.4375,0.4117647111415863,9.999999747378752e-06
0.741176426410675,2.1116676330566406,0.7129629850387573,0.6111111044883728,0.7391303777694702,3.8569695949554443,0.4375,0.4117647111415863,9.999999747378752e-06
0.741176426410675,2.093087673187256,0.7090908885002136,0.6190476417541504,0.7391303777694702,3.845625400543213,0.4375,0.4117647111415863,9.999999747378752e-06
0.741176426410675,2.0782182216644287,0.7222222089767456,0.6190476417541504,0.7391303777694702,3.8466238975524902,0.4375,0.4117647111415863,9.999999747378752e-06
0.741176426410675,2.064300060272217,0.7207207083702087,0.6349206566810608,0.7391303777694702,3.839322090148926,0.4375,0.4117647111415863,9.999999747378752e-06
0.741176426410675,2.047748327255249,0.7272727489471436,0.6349206566810608,0.7391303777694702,3.8395087718963623,0.4375,0.4117647111415863,9.999999747378752e-06
0.741176426410675,2.036207675933838,0.7222222089767456,0.6190476417541504,0.7391303777694702,3.841081142425537,0.4375,0.4117647111415863,9.999999747378752e-06
0.741176426410675,2.018810272216797,0.7222222089767456,0.6190476417541504,0.7391303777694702,3.839637517929077,0.4375,0.4117647111415863,9.999999747378752e-06
0.741176426410675,2.001626968383789,0.7247706651687622,0.6269841194152832,0.7391303777694702,3.8282089233398438,0.4375,0.4117647111415863,9.999999747378752e-06
0.741176426410675,1.9867494106292725,0.7247706651687622,0.6269841194152832,0.7391303777694702,3.8311572074890137,0.4375,0.4117647111415863,9.999999747378752e-06
0.741176426410675,1.9728070497512817,0.7247706651687622,0.6269841194152832,0.7391303777694702,3.830608606338501,0.4375,0.4117647111415863,9.999999747378752e-06
0.741176426410675,1.9580585956573486,0.7247706651687622,0.6269841194152832,0.7391303777694702,3.8220088481903076,0.4375,0.4117647111415863,9.999999747378752e-06
0.741176426410675,1.9418776035308838,0.7247706651687622,0.6269841194152832,0.7391303777694702,3.8280105590820312,0.4375,0.4117647111415863,9.999999747378752e-06
0.741176426410675,1.9370938539505005,0.7403846383094788,0.6111111044883728,0.7391303777694702,3.8362367153167725,0.4375,0.4117647111415863,9.999999747378752e-06
0.741176426410675,1.915509581565857,0.7247706651687622,0.6269841194152832,0.7391303777694702,3.8181920051574707,0.4375,0.4117647111415863,9.999999747378752e-06
0.741176426410675,1.9051727056503296,0.7272727489471436,0.6349206566810608,0.7391303777694702,3.8037030696868896,0.4375,0.4117647111415863,9.999999747378752e-06
0.741176426410675,1.8866297006607056,0.7297297120094299,0.6428571343421936,0.7391303777694702,3.808807373046875,0.4375,0.4117647111415863,9.999999747378752e-06
0.741176426410675,1.8740322589874268,0.7247706651687622,0.6269841194152832,0.7391303777694702,3.8155062198638916,0.4375,0.4117647111415863,9.999999747378752e-06
0.741176426410675,1.8612921237945557,0.7314814925193787,0.6269841194152832,0.7391303777694702,3.8174548149108887,0.4375,0.4117647111415863,9.999999747378752e-06
0.741176426410675,1.8464977741241455,0.7314814925193787,0.6269841194152832,0.7391303777694702,3.8052995204925537,0.4375,0.4117647111415863,9.999999747378752e-06
0.741176426410675,1.8320112228393555,0.7247706651687622,0.6269841194152832,0.7391303777694702,3.795501708984375,0.4375,0.4117647111415863,9.999999747378752e-06
0.7390028834342957,1.8181325197219849,0.7247706651687622,0.6269841194152832,0.7391303777694702,3.7897870540618896,0.4375,0.4117647111415863,9.999999747378752e-06
0.7390028834342957,1.8054821491241455,0.7272727489471436,0.6349206566810608,0.7391303777694702,3.7855916023254395,0.4375,0.4117647111415863,9.999999747378752e-06
0.7390028834342957,1.8000106811523438,0.7383177280426025,0.6269841194152832,0.7391303777694702,3.7884652614593506,0.4375,0.4117647111415863,9.999999747378752e-06
0.7390028834342957,1.7792226076126099,0.7314814925193787,0.6269841194152832,0.7391303777694702,3.778106927871704,0.4375,0.4117647111415863,9.999999747378752e-06
0.7390028834342957,1.7679210901260376,0.7272727489471436,0.6349206566810608,0.7391303777694702,3.771284341812134,0.47058823704719543,0.47058823704719543,9.999999747378752e-06
0.7390028834342957,1.7529417276382446,0.7363636493682861,0.6428571343421936,0.7391303777694702,3.771691083908081,0.47058823704719543,0.47058823704719543,9.999999747378752e-06
0.7390028834342957,1.7405229806900024,0.7339449524879456,0.6349206566810608,0.7391303777694702,3.768155813217163,0.47058823704719543,0.47058823704719543,9.999999747378752e-06
0.7390028834342957,1.7303106784820557,0.7339449524879456,0.6349206566810608,0.7391303777694702,3.7669899463653564,0.47058823704719543,0.47058823704719543,9.999999747378752e-06
0.7390028834342957,1.714401125907898,0.7339449524879456,0.6349206566810608,0.7391303777694702,3.752748727798462,0.47058823704719543,0.47058823704719543,9.999999747378752e-06
0.7390028834342957,1.7026128768920898,0.7321428656578064,0.6507936716079712,0.7391303777694702,3.7426607608795166,0.47058823704719543,0.47058823704719543,9.999999747378752e-06
0.7390028834342957,1.6923189163208008,0.7321428656578064,0.6507936716079712,0.7391303777694702,3.7454326152801514,0.47058823704719543,0.47058823704719543,9.999999747378752e-06
0.7390028834342957,1.6808433532714844,0.7387387156486511,0.6507936716079712,0.7391303777694702,3.7465882301330566,0.47058823704719543,0.47058823704719543,9.999999747378752e-06
0.7390028834342957,1.6674103736877441,0.7431192398071289,0.6428571343421936,0.7391303777694702,3.7471771240234375,0.47058823704719543,0.47058823704719543,9.999999747378752e-06
0.7390028834342957,1.6543232202529907,0.7431192398071289,0.6428571343421936,0.7391303777694702,3.741231918334961,0.47058823704719543,0.47058823704719543,9.999999747378752e-06
0.7390028834342957,1.6412842273712158,0.7477477192878723,0.658730149269104,0.7391303777694702,3.732783794403076,0.47058823704719543,0.47058823704719543,9.999999747378752e-06
0.7390028834342957,1.629844069480896,0.7477477192878723,0.658730149269104,0.7391303777694702,3.7320802211761475,0.47058823704719543,0.47058823704719543,9.999999747378752e-06
0.7390028834342957,1.6207221746444702,0.7570093274116516,0.6428571343421936,0.7391303777694702,3.7399587631225586,0.47058823704719543,0.47058823704719543,9.999999747378752e-06
0.7390028834342957,1.6081416606903076,0.7641509175300598,0.6428571343421936,0.7391303777694702,3.73634672164917,0.47058823704719543,0.47058823704719543,9.999999747378752e-06
0.7390028834342957,1.5917057991027832,0.7570093274116516,0.6428571343421936,0.7391303777694702,3.725338935852051,0.47058823704719543,0.47058823704719543,9.999999747378752e-06
0.7390028834342957,1.5835487842559814,0.7641509175300598,0.6428571343421936,0.7391303777694702,3.727029800415039,0.47058823704719543,0.47058823704719543,9.999999747378752e-06
0.7390028834342957,1.5746409893035889,0.75,0.6666666865348816,0.7391303777694702,3.7137279510498047,0.47058823704719543,0.47058823704719543,9.999999747378752e-06
0.7390028834342957,1.5602045059204102,0.7641509175300598,0.6428571343421936,0.7391303777694702,3.7200546264648438,0.47058823704719543,0.47058823704719543,9.999999747378752e-06
0.7390028834342957,1.546532392501831,0.7663551568984985,0.6507936716079712,0.7391303777694702,3.7161855697631836,0.47058823704719543,0.47058823704719543,9.999999747378752e-06
0.7390028834342957,1.538614273071289,0.7545454502105713,0.658730149269104,0.7391303777694702,3.7064504623413086,0.47058823704719543,0.47058823704719543,9.999999747378752e-06
0.7390028834342957,1.524307370185852,0.7706422209739685,0.6666666865348816,0.7391303777694702,3.7059478759765625,0.47058823704719543,0.47058823704719543,9.999999747378752e-06
0.7390028834342957,1.5143953561782837,0.7706422209739685,0.6666666865348816,0.7391303777694702,3.707266330718994,0.47058823704719543,0.47058823704719543,9.999999747378752e-06
0.7390028834342957,1.5015546083450317,0.7706422209739685,0.6666666865348816,0.7391303777694702,3.7047300338745117,0.47058823704719543,0.47058823704719543,9.999999747378752e-06
0.7390028834342957,1.4907958507537842,0.7706422209739685,0.6666666865348816,0.7391303777694702,3.6969258785247803,0.47058823704719543,0.47058823704719543,9.999999747378752e-06
0.7390028834342957,1.4793719053268433,0.7747747898101807,0.682539701461792,0.7391303777694702,3.689521312713623,0.47058823704719543,0.47058823704719543,9.999999747378752e-06
0.7390028834342957,1.472985029220581,0.769911527633667,0.6904761791229248,0.7391303777694702,3.6818437576293945,0.47058823704719543,0.47058823704719543,9.999999747378752e-06
0.7390028834342957,1.4577913284301758,0.7727272510528564,0.6746031641960144,0.7391303777694702,3.689645767211914,0.47058823704719543,0.47058823704719543,9.999999747378752e-06
0.7390028834342957,1.4491358995437622,0.7727272510528564,0.6746031641960144,0.7391303777694702,3.682685136795044,0.47058823704719543,0.47058823704719543,9.999999747378752e-06
0.7390028834342957,1.4367191791534424,0.7727272510528564,0.6746031641960144,0.7391303777694702,3.6768312454223633,0.47058823704719543,0.47058823704719543,9.999999747378752e-06
0.7390028834342957,1.427272081375122,0.7706422209739685,0.6666666865348816,0.7391303777694702,3.6820974349975586,0.47058823704719543,0.47058823704719543,9.999999747378752e-06
0.7390028834342957,1.4155291318893433,0.7747747898101807,0.682539701461792,0.7391303777694702,3.6719682216644287,0.47058823704719543,0.47058823704719543,9.999999747378752e-06
0.7390028834342957,1.4044430255889893,0.7747747898101807,0.682539701461792,0.7391303777694702,3.668062210083008,0.47058823704719543,0.47058823704719543,9.999999747378752e-06
0.7390028834342957,1.395612120628357,0.7767857313156128,0.6904761791229248,0.7391303777694702,3.6618998050689697,0.47058823704719543,0.47058823704719543,9.999999747378752e-06
0.7390028834342957,1.3857295513153076,0.7767857313156128,0.6904761791229248,0.7391303777694702,3.660090684890747,0.47058823704719543,0.47058823704719543,9.999999747378752e-06
0.7390028834342957,1.3760727643966675,0.7747747898101807,0.682539701461792,0.7391303777694702,3.660801410675049,0.47058823704719543,0.47058823704719543,9.999999747378752e-06
0.7390028834342957,1.3657875061035156,0.7727272510528564,0.6746031641960144,0.7391303777694702,3.6617867946624756,0.47058823704719543,0.47058823704719543,9.999999747378752e-06
0.7390028834342957,1.3558729887008667,0.778761088848114,0.6984127163887024,0.7391303777694702,3.6539084911346436,0.47058823704719543,0.47058823704719543,9.999999747378752e-06
0.7390028834342957,1.3487998247146606,0.7767857313156128,0.6904761791229248,0.7391303777694702,3.655918598175049,0.47058823704719543,0.47058823704719543,9.999999747378752e-06
0.7390028834342957,1.3354547023773193,0.7798165082931519,0.6746031641960144,0.7391303777694702,3.652909994125366,0.47058823704719543,0.47058823704719543,9.999999747378752e-06
0.7390028834342957,1.3328043222427368,0.7870370149612427,0.6746031641960144,0.7391303777694702,3.6548750400543213,0.47058823704719543,0.47058823704719543,9.999999747378752e-06
0.7390028834342957,1.324567198753357,0.7818182110786438,0.682539701461792,0.7391303777694702,3.636507749557495,0.47058823704719543,0.47058823704719543,9.999999747378752e-06
0.7390028834342957,1.3082060813903809,0.7857142686843872,0.6984127163887024,0.7391303777694702,3.6337766647338867,0.47058823704719543,0.47058823704719543,9.999999747378752e-06
0.7390028834342957,1.3025693893432617,0.780701756477356,0.7063491940498352,0.7391303777694702,3.6277029514312744,0.47058823704719543,0.47058823704719543,9.999999747378752e-06
0.7390028834342957,1.290952205657959,0.780701756477356,0.7063491940498352,0.7391303777694702,3.624795913696289,0.47058823704719543,0.47058823704719543,9.999999747378752e-06
0.7390028834342957,1.2786446809768677,0.7857142686843872,0.6984127163887024,0.7391303777694702,3.629795789718628,0.47058823704719543,0.47058823704719543,9.999999747378752e-06
0.7390028834342957,1.271887183189392,0.7837837934494019,0.6904761791229248,0.7391303777694702,3.63232421875,0.47058823704719543,0.47058823704719543,9.999999747378752e-06
0.7390028834342957,1.26366126537323,0.7837837934494019,0.6904761791229248,0.7391303777694702,3.6255712509155273,0.47058823704719543,0.47058823704719543,9.999999747378752e-06
0.7390028834342957,1.2554693222045898,0.780701756477356,0.7063491940498352,0.7391303777694702,3.6125431060791016,0.47058823704719543,0.47058823704719543,9.999999747378752e-06
0.7390028834342957,1.2444078922271729,0.782608687877655,0.7142857313156128,0.7391303777694702,3.6099016666412354,0.47058823704719543,0.47058823704719543,9.999999747378752e-06
0.7390028834342957,1.235708236694336,0.7876105904579163,0.7063491940498352,0.7391303777694702,3.6107373237609863,0.47058823704719543,0.47058823704719543,9.999999747378752e-06
0.7390028834342957,1.2265387773513794,0.7894737124443054,0.7142857313156128,0.7391303777694702,3.605085849761963,0.47058823704719543,0.47058823704719543,9.999999747378752e-06
0.7390028834342957,1.2186393737792969,0.782608687877655,0.7142857313156128,0.7391303777694702,3.598581314086914,0.47058823704719543,0.47058823704719543,9.999999747378752e-06
0.7390028834342957,1.2127796411514282,0.7876105904579163,0.7063491940498352,0.7391303777694702,3.6011242866516113,0.47058823704719543,0.47058823704719543,9.999999747378752e-06
0.7390028834342957,1.205282211303711,0.782608687877655,0.7142857313156128,0.7391303777694702,3.5926990509033203,0.47058823704719543,0.47058823704719543,9.999999747378752e-06
0.7390028834342957,1.1920664310455322,0.782608687877655,0.7142857313156128,0.7391303777694702,3.593048572540283,0.47058823704719543,0.47058823704719543,9.999999747378752e-06
0.7390028834342957,1.1841970682144165,0.8035714030265808,0.7142857313156128,0.7391303777694702,3.593512773513794,0.47058823704719543,0.47058823704719543,9.999999747378752e-06
0.7390028834342957,1.1751549243927002,0.8035714030265808,0.7142857313156128,0.7391303777694702,3.5899763107299805,0.47058823704719543,0.47058823704719543,9.999999747378752e-06
0.7390028834342957,1.1676133871078491,0.7964601516723633,0.7142857313156128,0.7391303777694702,3.584979295730591,0.47058823704719543,0.47058823704719543,9.999999747378752e-06
0.7390028834342957,1.1588387489318848,0.7894737124443054,0.7142857313156128,0.7391303777694702,3.5773141384124756,0.47058823704719543,0.47058823704719543,9.999999747378752e-06
0.7390028834342957,1.1539510488510132,0.7964601516723633,0.7142857313156128,0.7391303777694702,3.5815088748931885,0.47058823704719543,0.47058823704719543,9.999999747378752e-06
0.7390028834342957,1.143123745918274,0.8035714030265808,0.7142857313156128,0.7391303777694702,3.569634437561035,0.47058823704719543,0.47058823704719543,9.999999747378752e-06
0.7390028834342957,1.1326333284378052,0.7844827771186829,0.7222222089767456,0.7391303777694702,3.5688066482543945,0.47058823704719543,0.47058823704719543,9.999999747378752e-06
0.7390028834342957,1.1250340938568115,0.7964601516723633,0.7142857313156128,0.7391303777694702,3.5664374828338623,0.47058823704719543,0.47058823704719543,9.999999747378752e-06
0.7390028834342957,1.1155914068222046,0.7982456088066101,0.7222222089767456,0.7391303777694702,3.5673327445983887,0.47058823704719543,0.47058823704719543,9.999999747378752e-06
0.7390028834342957,1.1101181507110596,0.8181818127632141,0.7142857313156128,0.7391303777694702,3.5708165168762207,0.47058823704719543,0.47058823704719543,9.999999747378752e-06
0.7390028834342957,1.1005797386169434,0.8181818127632141,0.7142857313156128,0.7391303777694702,3.5651655197143555,0.47058823704719543,0.47058823704719543,9.999999747378752e-06
0.7390028834342957,1.0916236639022827,0.8181818127632141,0.7142857313156128,0.7391303777694702,3.558617115020752,0.47058823704719543,0.47058823704719543,9.999999747378752e-06
0.7390028834342957,1.0847619771957397,0.800000011920929,0.7301587462425232,0.7391303777694702,3.5499095916748047,0.47058823704719543,0.47058823704719543,9.999999747378752e-06
0.7390028834342957,1.0755796432495117,0.8070175647735596,0.7301587462425232,0.7391303777694702,3.546421527862549,0.47058823704719543,0.47058823704719543,9.999999747378752e-06
0.7390028834342957,1.068023920059204,0.8070175647735596,0.7301587462425232,0.7391303777694702,3.545532703399658,0.47058823704719543,0.47058823704719543,9.999999747378752e-06
0.7390028834342957,1.0610939264297485,0.8214285969734192,0.7301587462425232,0.7391303777694702,3.545305013656616,0.47058823704719543,0.47058823704719543,9.999999747378752e-06
0.7390028834342957,1.0541912317276,0.8141592741012573,0.7301587462425232,0.7391303777694702,3.543996810913086,0.4375,0.4117647111415863,9.999999747378752e-06
0.7390028834342957,1.0499083995819092,0.8070175647735596,0.7301587462425232,0.7391303777694702,3.5348410606384277,0.47058823704719543,0.47058823704719543,9.999999747378752e-06
0.7390028834342957,1.0380170345306396,0.8070175647735596,0.7301587462425232,0.7391303777694702,3.5358834266662598,0.4375,0.4117647111415863,9.999999747378752e-06
0.7390028834342957,1.0310087203979492,0.8141592741012573,0.7301587462425232,0.7391303777694702,3.5319156646728516,0.4375,0.4117647111415863,9.999999747378752e-06
0.7390028834342957,1.0251173973083496,0.8363636136054993,0.7301587462425232,0.7391303777694702,3.5353972911834717,0.4375,0.4117647111415863,9.999999747378752e-06
0.7390028834342957,1.019106388092041,0.8288288116455078,0.7301587462425232,0.7391303777694702,3.525644540786743,0.47058823704719543,0.47058823704719543,9.999999747378752e-06
0.7390028834342957,1.009964108467102,0.8141592741012573,0.7301587462425232,0.7391303777694702,3.521209716796875,0.47058823704719543,0.47058823704719543,9.999999747378752e-06
0.7390028834342957,1.0050116777420044,0.8173912763595581,0.7460317611694336,0.7391303777694702,3.517204761505127,0.47058823704719543,0.47058823704719543,9.999999747378752e-06
0.7390028834342957,0.9945152997970581,0.8318583965301514,0.7460317611694336,0.7391303777694702,3.5202584266662598,0.4375,0.4117647111415863,9.999999747378752e-06
0.7390028834342957,0.9873834848403931,0.8303571343421936,0.738095223903656,0.7391303777694702,3.5186095237731934,0.4375,0.4117647111415863,9.999999747378752e-06
0.7390028834342957,0.9800546169281006,0.853210985660553,0.738095223903656,0.7391303777694702,3.5152461528778076,0.4375,0.4117647111415863,9.999999747378752e-06
0.7390028834342957,0.9730008840560913,0.837837815284729,0.738095223903656,0.7391303777694702,3.5132110118865967,0.4375,0.4117647111415863,9.999999747378752e-06
0.7390028834342957,0.9664556980133057,0.8392857313156128,0.7460317611694336,0.7391303777694702,3.5072200298309326,0.4375,0.4117647111415863,9.999999747378752e-06
0.7390028834342957,0.9595211744308472,0.8318583965301514,0.7460317611694336,0.7391303777694702,3.504159927368164,0.4375,0.4117647111415863,9.999999747378752e-06
0.7390028834342957,0.953919529914856,0.8318583965301514,0.7460317611694336,0.7391303777694702,3.501265048980713,0.4375,0.4117647111415863,9.999999747378752e-06
0.7390028834342957,0.9503264427185059,0.853210985660553,0.738095223903656,0.7391303777694702,3.5054595470428467,0.4375,0.4117647111415863,9.999999747378752e-06
0.7390028834342957,0.940610945224762,0.8611111044883728,0.738095223903656,0.7391303777694702,3.5016045570373535,0.4375,0.4117647111415863,9.999999747378752e-06
0.7390028834342957,0.9345036149024963,0.8623853325843811,0.7460317611694336,0.7391303777694702,3.494055986404419,0.4375,0.4117647111415863,9.999999747378752e-06
0.7390028834342957,0.927873969078064,0.8545454740524292,0.7460317611694336,0.7391303777694702,3.495999336242676,0.4375,0.4117647111415863,9.999999747378752e-06
0.7390028834342957,0.919302225112915,0.8623853325843811,0.7460317611694336,0.7391303777694702,3.490731716156006,0.4375,0.4117647111415863,9.999999747378752e-06
0.7390028834342957,0.913596510887146,0.8482142686843872,0.7539682388305664,0.7391303777694702,3.4792890548706055,0.47058823704719543,0.47058823704719543,9.999999747378752e-06
0.7390028834342957,0.908623993396759,0.8558558821678162,0.7539682388305664,0.7391303777694702,3.480752468109131,0.47058823704719543,0.47058823704719543,9.999999747378752e-06
0.7390028834342957,0.8992265462875366,0.8558558821678162,0.7539682388305664,0.7391303777694702,3.4781014919281006,0.47058823704719543,0.47058823704719543,9.999999747378752e-06
0.7390028834342957,0.8941843509674072,0.8558558821678162,0.7539682388305664,0.7391303777694702,3.481132745742798,0.4375,0.4117647111415863,9.999999747378752e-06
0.7390028834342957,0.8853948712348938,0.8636363744735718,0.7539682388305664,0.7391303777694702,3.4801321029663086,0.4375,0.4117647111415863,9.999999747378752e-06
0.7390028834342957,0.8792153000831604,0.8636363744735718,0.7539682388305664,0.7391303777694702,3.475459575653076,0.4000000059604645,0.3529411852359772,9.999999747378752e-06
0.7390028834342957,0.8729740381240845,0.8715596199035645,0.7539682388305664,0.7391303777694702,3.472952365875244,0.4000000059604645,0.3529411852359772,9.999999747378752e-06
0.7390028834342957,0.8661531805992126,0.8715596199035645,0.7539682388305664,0.7391303777694702,3.4628782272338867,0.47058823704719543,0.47058823704719543,9.999999747378752e-06
0.7390028834342957,0.8596166372299194,0.8558558821678162,0.7539682388305664,0.7391303777694702,3.462043523788452,0.47058823704719543,0.47058823704719543,9.999999747378752e-06
0.7390028834342957,0.8529804348945618,0.8558558821678162,0.7539682388305664,0.7391303777694702,3.4597415924072266,0.47058823704719543,0.47058823704719543,9.999999747378752e-06
0.7390028834342957,0.846082866191864,0.8715596199035645,0.7539682388305664,0.7391303777694702,3.4614763259887695,0.4000000059604645,0.3529411852359772,9.999999747378752e-06
0.7390028834342957,0.8434060215950012,0.8715596199035645,0.7539682388305664,0.7391303777694702,3.4624133110046387,0.4000000059604645,0.3529411852359772,9.999999747378752e-06
0.7390028834342957,0.8344168066978455,0.8715596199035645,0.7539682388305664,0.7391303777694702,3.4555180072784424,0.4000000059604645,0.3529411852359772,9.999999747378752e-06
0.7390028834342957,0.8270573019981384,0.8715596199035645,0.7539682388305664,0.7391303777694702,3.4482462406158447,0.4375,0.4117647111415863,9.999999747378752e-06
0.7390028834342957,0.8225387334823608,0.8571428656578064,0.761904776096344,0.7391303777694702,3.4405839443206787,0.47058823704719543,0.47058823704719543,9.999999747378752e-06
0.7390028834342957,0.8171262741088867,0.8648648858070374,0.761904776096344,0.7391303777694702,3.4415488243103027,0.4375,0.4117647111415863,9.999999747378752e-06
0.7390028834342957,0.8122329115867615,0.8648648858070374,0.761904776096344,0.7391303777694702,3.438429355621338,0.4375,0.4117647111415863,9.999999747378752e-06
0.7390028834342957,0.8066811561584473,0.8727272748947144,0.761904776096344,0.7391303777694702,3.442296028137207,0.4375,0.4117647111415863,9.999999747378752e-06
0.7390028834342957,0.798045814037323,0.8715596199035645,0.7539682388305664,0.7391303777694702,3.436408758163452,0.4375,0.4117647111415863,9.999999747378752e-06
0.7390028834342957,0.7930213809013367,0.8727272748947144,0.761904776096344,0.7391303777694702,3.4284040927886963,0.4375,0.4117647111415863,9.999999747378752e-06
0.7390028834342957,0.7876933217048645,0.8660714030265808,0.7698412537574768,0.7391303777694702,3.426786422729492,0.4375,0.4117647111415863,9.999999747378752e-06
0.7390028834342957,0.7829416394233704,0.8660714030265808,0.7698412537574768,0.7391303777694702,3.4239840507507324,0.4375,0.4117647111415863,9.999999747378752e-06
