F1Score,loss,precision,recall,val_F1Score,val_loss,val_precision,val_recall,learning_rate
0.7493112683296204,3.720271587371826,0.6240000128746033,0.569343090057373,0.6399999856948853,5.023645401000977,0.4166666567325592,0.625,9.999999747378752e-06
0.7458562850952148,3.6570072174072266,0.6178861856460571,0.55474454164505,0.6399999856948853,4.954841136932373,0.4166666567325592,0.625,9.999999747378752e-06
0.7458562850952148,3.613351583480835,0.6147540807723999,0.5474452376365662,0.6399999856948853,4.905756950378418,0.4166666567325592,0.625,9.999999747378752e-06
0.7458562850952148,3.5736541748046875,0.6218487620353699,0.540145993232727,0.6399999856948853,4.830084323883057,0.4166666567325592,0.625,9.999999747378752e-06
0.7458562850952148,3.534154176712036,0.6153846383094788,0.525547444820404,0.6399999856948853,4.766450881958008,0.3636363744735718,0.5,9.999999747378752e-06
0.7458562850952148,3.503601551055908,0.626086950302124,0.525547444820404,0.6399999856948853,4.7076029777526855,0.3636363744735718,0.5,9.999999747378752e-06
0.7458562850952148,3.4684104919433594,0.626086950302124,0.525547444820404,0.6399999856948853,4.695390224456787,0.3636363744735718,0.5,9.999999747378752e-06
0.7458562850952148,3.441512107849121,0.626086950302124,0.525547444820404,0.6399999856948853,4.694273471832275,0.3636363744735718,0.5,9.999999747378752e-06
0.7458562850952148,3.4085628986358643,0.626086950302124,0.525547444820404,0.6399999856948853,4.671032428741455,0.3636363744735718,0.5,9.999999747378752e-06
0.7458562850952148,3.3802390098571777,0.626086950302124,0.525547444820404,0.6399999856948853,4.66400146484375,0.3636363744735718,0.5,9.999999747378752e-06
0.7458562850952148,3.349686861038208,0.626086950302124,0.525547444820404,0.6399999856948853,4.65585994720459,0.3636363744735718,0.5,9.999999747378752e-06
0.7458562850952148,3.3224432468414307,0.6228070259094238,0.5182482004165649,0.6399999856948853,4.645675182342529,0.3636363744735718,0.5,9.999999747378752e-06
0.7458562850952148,3.2942869663238525,0.6228070259094238,0.5182482004165649,0.6399999856948853,4.62495231628418,0.3636363744735718,0.5,9.999999747378752e-06
0.7458562850952148,3.267526865005493,0.625,0.510948896408081,0.6399999856948853,4.596092224121094,0.3636363744735718,0.5,9.999999747378752e-06
0.7458562850952148,3.237520694732666,0.625,0.510948896408081,0.6399999856948853,4.5975661277771,0.3636363744735718,0.5,9.999999747378752e-06
0.7458562850952148,3.2108442783355713,0.6194690465927124,0.510948896408081,0.6399999856948853,4.61152458190918,0.4166666567325592,0.625,9.999999747378752e-06
0.7493112683296204,3.183253049850464,0.6228070259094238,0.5182482004165649,0.6399999856948853,4.602996826171875,0.4166666567325592,0.625,9.999999747378752e-06
0.7493112683296204,3.1621506214141846,0.6194690465927124,0.510948896408081,0.6399999856948853,4.5708394050598145,0.4166666567325592,0.625,9.999999747378752e-06
0.7493112683296204,3.1308066844940186,0.625,0.510948896408081,0.6399999856948853,4.554163455963135,0.4166666567325592,0.625,9.999999747378752e-06
0.7493112683296204,3.101179599761963,0.625,0.510948896408081,0.6399999856948853,4.560810565948486,0.4166666567325592,0.625,9.999999747378752e-06
0.7493112683296204,3.0757694244384766,0.6283186078071594,0.5182482004165649,0.6399999856948853,4.554242134094238,0.4166666567325592,0.625,9.999999747378752e-06
0.7527471780776978,3.0506765842437744,0.6283186078071594,0.5182482004165649,0.6399999856948853,4.546626091003418,0.4166666567325592,0.625,9.999999747378752e-06
0.7527471780776978,3.022998332977295,0.6283186078071594,0.5182482004165649,0.6399999856948853,4.527881622314453,0.4166666567325592,0.625,9.999999747378752e-06
0.7527471780776978,2.996326208114624,0.6283186078071594,0.5182482004165649,0.6399999856948853,4.532871723175049,0.4166666567325592,0.625,9.999999747378752e-06
0.7527471780776978,2.9707489013671875,0.6283186078071594,0.5182482004165649,0.6399999856948853,4.500164031982422,0.4166666567325592,0.625,9.999999747378752e-06
0.7527471780776978,2.944488763809204,0.6339285969734192,0.5182482004165649,0.6399999856948853,4.472434997558594,0.4166666567325592,0.625,9.999999747378752e-06
0.7527471780776978,2.9182357788085938,0.630630612373352,0.510948896408081,0.6399999856948853,4.473400115966797,0.4166666567325592,0.625,9.999999747378752e-06
0.7527471780776978,2.897630453109741,0.6339285969734192,0.5182482004165649,0.6399999856948853,4.4828104972839355,0.4166666567325592,0.625,9.999999747378752e-06
0.7527471780776978,2.8723957538604736,0.630630612373352,0.510948896408081,0.6399999856948853,4.443120956420898,0.4166666567325592,0.625,9.999999747378752e-06
0.7527471780776978,2.8426780700683594,0.6363636255264282,0.510948896408081,0.6399999856948853,4.424685478210449,0.4166666567325592,0.625,9.999999747378752e-06
0.7527471780776978,2.819960832595825,0.6330274939537048,0.5036496520042419,0.6399999856948853,4.410759925842285,0.4166666567325592,0.625,9.999999747378752e-06
0.7527471780776978,2.7905523777008057,0.6330274939537048,0.5036496520042419,0.6399999856948853,4.416721820831299,0.4166666567325592,0.625,9.999999747378752e-06
0.7527471780776978,2.767742872238159,0.6339285969734192,0.5182482004165649,0.6399999856948853,4.414395809173584,0.4166666567325592,0.625,9.999999747378752e-06
0.7527471780776978,2.7440388202667236,0.6272727251052856,0.5036496520042419,0.6399999856948853,4.379143714904785,0.4166666567325592,0.625,9.999999747378752e-06
0.7527471780776978,2.7191386222839355,0.6272727251052856,0.5036496520042419,0.6399999856948853,4.389796257019043,0.4166666567325592,0.625,9.999999747378752e-06
0.7527471780776978,2.694709062576294,0.6339285969734192,0.5182482004165649,0.6399999856948853,4.386611461639404,0.4166666567325592,0.625,9.999999747378752e-06
0.7527471780776978,2.6713297367095947,0.6339285969734192,0.5182482004165649,0.6399999856948853,4.390456676483154,0.4166666567325592,0.625,9.999999747378752e-06
0.7527471780776978,2.6486144065856934,0.6339285969734192,0.5182482004165649,0.6399999856948853,4.3936614990234375,0.4166666567325592,0.625,9.999999747378752e-06
0.7527471780776978,2.6252102851867676,0.6339285969734192,0.5182482004165649,0.6399999856948853,4.390341281890869,0.4166666567325592,0.625,9.999999747378752e-06
0.7527471780776978,2.6027560234069824,0.6396396160125732,0.5182482004165649,0.6399999856948853,4.375036239624023,0.4166666567325592,0.625,9.999999747378752e-06
0.7527471780776978,2.58335280418396,0.6396396160125732,0.5182482004165649,0.6399999856948853,4.359862804412842,0.4166666567325592,0.625,9.999999747378752e-06
0.7527471780776978,2.5599803924560547,0.6396396160125732,0.5182482004165649,0.6399999856948853,4.364368438720703,0.4166666567325592,0.625,9.999999747378752e-06
0.7527471780776978,2.537325620651245,0.6396396160125732,0.5182482004165649,0.6399999856948853,4.336989402770996,0.4166666567325592,0.625,9.999999747378752e-06
0.7527471780776978,2.5158960819244385,0.6454545259475708,0.5182482004165649,0.6399999856948853,4.324072360992432,0.4166666567325592,0.625,9.999999747378752e-06
0.7527471780776978,2.494213342666626,0.6454545259475708,0.5182482004165649,0.6399999856948853,4.3076605796813965,0.4166666567325592,0.625,9.999999747378752e-06
0.7527471780776978,2.473642110824585,0.6513761281967163,0.5182482004165649,0.6399999856948853,4.313604354858398,0.4166666567325592,0.625,9.999999747378752e-06
0.7527471780776978,2.4543094635009766,0.6454545259475708,0.5182482004165649,0.6399999856948853,4.330312728881836,0.4166666567325592,0.625,9.999999747378752e-06
0.7527471780776978,2.434835195541382,0.6396396160125732,0.5182482004165649,0.6399999856948853,4.291814804077148,0.4166666567325592,0.625,9.999999747378752e-06
0.7527471780776978,2.4125285148620605,0.6574074029922485,0.5182482004165649,0.6399999856948853,4.296893119812012,0.4166666567325592,0.625,9.999999747378752e-06
0.7527471780776978,2.39335560798645,0.6545454263687134,0.525547444820404,0.6399999856948853,4.302412033081055,0.4166666567325592,0.625,9.999999747378752e-06
0.7527471780776978,2.3747847080230713,0.6491228342056274,0.540145993232727,0.6399999856948853,4.316309928894043,0.4166666567325592,0.625,9.999999747378752e-06
0.7527471780776978,2.3589982986450195,0.643478274345398,0.540145993232727,0.6399999856948853,4.329669952392578,0.4166666567325592,0.625,9.999999747378752e-06
0.7527471780776978,2.336379051208496,0.6491228342056274,0.540145993232727,0.6399999856948853,4.2952680587768555,0.4166666567325592,0.625,9.999999747378752e-06
0.7527471780776978,2.3164000511169434,0.6491228342056274,0.540145993232727,0.6399999856948853,4.2875823974609375,0.4166666567325592,0.625,9.999999747378752e-06
0.7527471780776978,2.29609751701355,0.6607142686843872,0.540145993232727,0.6399999856948853,4.259281158447266,0.4166666567325592,0.625,9.999999747378752e-06
0.7527471780776978,2.2862045764923096,0.6548672318458557,0.540145993232727,0.6399999856948853,4.278102397918701,0.4166666567325592,0.625,9.999999747378752e-06
0.7527471780776978,2.257218599319458,0.6666666865348816,0.540145993232727,0.6399999856948853,4.218474388122559,0.4166666567325592,0.625,9.999999747378752e-06
0.7527471780776978,2.2448337078094482,0.6666666865348816,0.540145993232727,0.6399999856948853,4.233978271484375,0.4166666567325592,0.625,9.999999747378752e-06
0.7527471780776978,2.2221200466156006,0.6696428656578064,0.5474452376365662,0.6399999856948853,4.230086803436279,0.4166666567325592,0.625,9.999999747378752e-06
0.7527471780776978,2.208923101425171,0.6637167930603027,0.5474452376365662,0.6399999856948853,4.246119976043701,0.4166666567325592,0.625,9.999999747378752e-06
0.7527471780776978,2.187340259552002,0.6637167930603027,0.5474452376365662,0.6399999856948853,4.24005126953125,0.4166666567325592,0.625,9.999999747378752e-06
0.7527471780776978,2.1703920364379883,0.6696428656578064,0.5474452376365662,0.6399999856948853,4.232442378997803,0.4166666567325592,0.625,9.999999747378752e-06
0.7527471780776978,2.153373956680298,0.6696428656578064,0.5474452376365662,0.6399999856948853,4.216665744781494,0.4166666567325592,0.625,9.999999747378752e-06
0.7527471780776978,2.13765549659729,0.6756756901741028,0.5474452376365662,0.6399999856948853,4.208698272705078,0.4166666567325592,0.625,9.999999747378752e-06
0.7527471780776978,2.1200804710388184,0.6756756901741028,0.5474452376365662,0.6399999856948853,4.206576824188232,0.4166666567325592,0.625,9.999999747378752e-06
0.7527471780776978,2.105142593383789,0.6756756901741028,0.5474452376365662,0.6399999856948853,4.2103142738342285,0.4166666567325592,0.625,9.999999747378752e-06
0.7527471780776978,2.087312698364258,0.6725663542747498,0.55474454164505,0.6399999856948853,4.2169060707092285,0.4166666567325592,0.625,9.999999747378752e-06
0.7527471780776978,2.070904016494751,0.6725663542747498,0.55474454164505,0.6399999856948853,4.19634485244751,0.4166666567325592,0.625,9.999999747378752e-06
0.7527471780776978,2.0563669204711914,0.6725663542747498,0.55474454164505,0.6399999856948853,4.198827743530273,0.4166666567325592,0.625,9.999999747378752e-06
0.7527471780776978,2.040497303009033,0.684684693813324,0.55474454164505,0.6399999856948853,4.15346097946167,0.4166666567325592,0.625,9.999999747378752e-06
0.7527471780776978,2.0256173610687256,0.6880733966827393,0.5474452376365662,0.6399999856948853,4.140598297119141,0.4166666567325592,0.625,9.999999747378752e-06
0.7527471780776978,2.010110378265381,0.6909090876579285,0.55474454164505,0.6399999856948853,4.14335298538208,0.4166666567325592,0.625,9.999999747378752e-06
0.7527471780776978,1.9925472736358643,0.6909090876579285,0.55474454164505,0.6399999856948853,4.14754056930542,0.4166666567325592,0.625,9.999999747378752e-06
0.7527471780776978,1.9776935577392578,0.6909090876579285,0.55474454164505,0.6399999856948853,4.135864734649658,0.4166666567325592,0.625,9.999999747378752e-06
0.7527471780776978,1.9646121263504028,0.684684693813324,0.55474454164505,0.6399999856948853,4.14818811416626,0.4166666567325592,0.625,9.999999747378752e-06
0.7527471780776978,1.9488247632980347,0.6936936974525452,0.5620437860488892,0.6399999856948853,4.146246910095215,0.4166666567325592,0.625,9.999999747378752e-06
0.7527471780776978,1.9316526651382446,0.6936936974525452,0.5620437860488892,0.6399999856948853,4.134354114532471,0.4166666567325592,0.625,9.999999747378752e-06
0.7527471780776978,1.920843243598938,0.6936936974525452,0.5620437860488892,0.6399999856948853,4.1407623291015625,0.38461539149284363,0.625,9.999999747378752e-06
0.7527471780776978,1.9036039113998413,0.6936936974525452,0.5620437860488892,0.6399999856948853,4.13009786605835,0.38461539149284363,0.625,9.999999747378752e-06
0.7527471780776978,1.890904188156128,0.6936936974525452,0.5620437860488892,0.6399999856948853,4.1188812255859375,0.38461539149284363,0.625,9.999999747378752e-06
0.7527471780776978,1.8767327070236206,0.6964285969734192,0.569343090057373,0.6399999856948853,4.118326663970947,0.38461539149284363,0.625,9.999999747378752e-06
0.7527471780776978,1.8624029159545898,0.6964285969734192,0.569343090057373,0.6399999856948853,4.125692844390869,0.38461539149284363,0.625,9.999999747378752e-06
0.7527471780776978,1.8487250804901123,0.6964285969734192,0.569343090057373,0.6399999856948853,4.124417781829834,0.38461539149284363,0.625,9.999999747378752e-06
0.7527471780776978,1.8340692520141602,0.7027027010917664,0.569343090057373,0.6399999856948853,4.106429576873779,0.38461539149284363,0.625,9.999999747378752e-06
0.7527471780776978,1.8214658498764038,0.6964285969734192,0.569343090057373,0.6399999856948853,4.100314617156982,0.38461539149284363,0.625,9.999999747378752e-06
0.7527471780776978,1.8078458309173584,0.7027027010917664,0.569343090057373,0.6399999856948853,4.101688861846924,0.38461539149284363,0.625,9.999999747378752e-06
0.7527471780776978,1.7943812608718872,0.7090908885002136,0.569343090057373,0.6399999856948853,4.072627544403076,0.38461539149284363,0.625,9.999999747378752e-06
0.7527471780776978,1.7836087942123413,0.7027027010917664,0.569343090057373,0.6399999856948853,4.081952095031738,0.38461539149284363,0.625,9.999999747378752e-06
0.7527471780776978,1.7667862176895142,0.7090908885002136,0.569343090057373,0.6399999856948853,4.0683417320251465,0.38461539149284363,0.625,9.999999747378752e-06
0.7527471780776978,1.753939151763916,0.7090908885002136,0.569343090057373,0.6399999856948853,4.055563926696777,0.38461539149284363,0.625,9.999999747378752e-06
0.7527471780776978,1.7430884838104248,0.7064220309257507,0.5620437860488892,0.6399999856948853,4.02338171005249,0.38461539149284363,0.625,9.999999747378752e-06
0.7527471780776978,1.7299891710281372,0.7064220309257507,0.5620437860488892,0.6399999856948853,4.052382946014404,0.38461539149284363,0.625,9.999999747378752e-06
0.7527471780776978,1.7160253524780273,0.7090908885002136,0.569343090057373,0.6399999856948853,4.051793098449707,0.38461539149284363,0.625,9.999999747378752e-06
0.7527471780776978,1.7020635604858398,0.7064220309257507,0.5620437860488892,0.6399999856948853,4.028977870941162,0.38461539149284363,0.625,9.999999747378752e-06
0.7527471780776978,1.6892598867416382,0.7064220309257507,0.5620437860488892,0.6399999856948853,4.03557825088501,0.38461539149284363,0.625,9.999999747378752e-06
0.7527471780776978,1.6751915216445923,0.7090908885002136,0.569343090057373,0.6399999856948853,4.024863243103027,0.38461539149284363,0.625,9.999999747378752e-06
0.7527471780776978,1.664002776145935,0.7090908885002136,0.569343090057373,0.6399999856948853,4.040116310119629,0.38461539149284363,0.625,9.999999747378752e-06
0.7527471780776978,1.6513965129852295,0.7090908885002136,0.569343090057373,0.6399999856948853,4.01861572265625,0.38461539149284363,0.625,9.999999747378752e-06
0.7527471780776978,1.6388800144195557,0.7155963182449341,0.569343090057373,0.6399999856948853,4.010076522827148,0.38461539149284363,0.625,9.999999747378752e-06
0.7527471780776978,1.6262577772140503,0.7155963182449341,0.569343090057373,0.6399999856948853,4.004211902618408,0.38461539149284363,0.625,9.999999747378752e-06
0.7527471780776978,1.6160173416137695,0.7155963182449341,0.569343090057373,0.6399999856948853,3.985532760620117,0.38461539149284363,0.625,9.999999747378752e-06
0.7527471780776978,1.6017768383026123,0.7181817889213562,0.5766423344612122,0.6399999856948853,3.992488145828247,0.38461539149284363,0.625,9.999999747378752e-06
0.7527471780776978,1.5890425443649292,0.7272727489471436,0.5839415788650513,0.6399999856948853,3.969064712524414,0.38461539149284363,0.625,9.999999747378752e-06
0.7527471780776978,1.577805995941162,0.7314814925193787,0.5766423344612122,0.6399999856948853,3.948622226715088,0.38461539149284363,0.625,9.999999747378752e-06
0.7527471780776978,1.5640525817871094,0.7383177280426025,0.5766423344612122,0.6399999856948853,3.931119918823242,0.38461539149284363,0.625,9.999999747378752e-06
0.7527471780776978,1.5520539283752441,0.7358490824699402,0.569343090057373,0.6399999856948853,3.9019088745117188,0.38461539149284363,0.625,9.999999747378752e-06
0.7527471780776978,1.5420269966125488,0.7407407164573669,0.5839415788650513,0.6399999856948853,3.9215006828308105,0.38461539149284363,0.625,9.999999747378752e-06
0.7527471780776978,1.5292730331420898,0.7407407164573669,0.5839415788650513,0.6399999856948853,3.9353997707366943,0.38461539149284363,0.625,9.999999747378752e-06
0.7527471780776978,1.5172812938690186,0.7477477192878723,0.6058394312858582,0.6399999856948853,3.9294097423553467,0.38461539149284363,0.625,9.999999747378752e-06
0.7527471780776978,1.5079119205474854,0.7433628439903259,0.6131386756896973,0.6399999856948853,3.9657719135284424,0.38461539149284363,0.625,9.999999747378752e-06
0.7527471780776978,1.4955509901046753,0.7368420958518982,0.6131386756896973,0.6399999856948853,3.9498305320739746,0.38461539149284363,0.625,9.999999747378752e-06
0.7527471780776978,1.4848912954330444,0.7433628439903259,0.6131386756896973,0.6399999856948853,3.94842791557312,0.38461539149284363,0.625,9.999999747378752e-06
0.7527471780776978,1.4740184545516968,0.75,0.6131386756896973,0.6399999856948853,3.9447286128997803,0.38461539149284363,0.625,9.999999747378752e-06
0.7527471780776978,1.4638187885284424,0.75,0.6131386756896973,0.6399999856948853,3.9439446926116943,0.38461539149284363,0.625,9.999999747378752e-06
0.7527471780776978,1.4536006450653076,0.75,0.6131386756896973,0.6399999856948853,3.9322235584259033,0.38461539149284363,0.625,9.999999747378752e-06
0.7527471780776978,1.4448298215866089,0.75,0.6131386756896973,0.6399999856948853,3.889615297317505,0.38461539149284363,0.625,9.999999747378752e-06
0.7527471780776978,1.4330366849899292,0.75,0.6131386756896973,0.6399999856948853,3.881488561630249,0.38461539149284363,0.625,9.999999747378752e-06
0.7527471780776978,1.4243801832199097,0.75,0.6131386756896973,0.6399999856948853,3.9080967903137207,0.38461539149284363,0.625,9.999999747378752e-06
0.7527471780776978,1.4153283834457397,0.75,0.6131386756896973,0.6399999856948853,3.941664695739746,0.38461539149284363,0.625,9.999999747378752e-06
0.7527471780776978,1.402488350868225,0.752212405204773,0.6204379796981812,0.6399999856948853,3.9129159450531006,0.38461539149284363,0.625,9.999999747378752e-06
0.7527471780776978,1.3916082382202148,0.752212405204773,0.6204379796981812,0.6399999856948853,3.905301332473755,0.38461539149284363,0.625,9.999999747378752e-06
0.7527471780776978,1.3842287063598633,0.752212405204773,0.6204379796981812,0.6399999856948853,3.88552188873291,0.38461539149284363,0.625,9.999999747378752e-06
0.7527471780776978,1.3731948137283325,0.752212405204773,0.6204379796981812,0.6399999856948853,3.897404909133911,0.38461539149284363,0.625,9.999999747378752e-06
0.7527471780776978,1.362188696861267,0.752212405204773,0.6204379796981812,0.6399999856948853,3.8880462646484375,0.38461539149284363,0.625,9.999999747378752e-06
0.7506848573684692,1.354801058769226,0.752212405204773,0.6204379796981812,0.6399999856948853,3.8697757720947266,0.38461539149284363,0.625,9.999999747378752e-06
0.7506848573684692,1.3452388048171997,0.752212405204773,0.6204379796981812,0.6399999856948853,3.903541088104248,0.38461539149284363,0.625,9.999999747378752e-06
0.7506848573684692,1.334599494934082,0.7543859481811523,0.6277372241020203,0.6399999856948853,3.8841023445129395,0.38461539149284363,0.625,9.999999747378752e-06
0.7506848573684692,1.32345712184906,0.752212405204773,0.6204379796981812,0.6399999856948853,3.859647035598755,0.38461539149284363,0.625,9.999999747378752e-06
0.7506848573684692,1.3162431716918945,0.7589285969734192,0.6204379796981812,0.6399999856948853,3.850865602493286,0.38461539149284363,0.625,9.999999747378752e-06
0.7506848573684692,1.3064203262329102,0.7657657861709595,0.6204379796981812,0.6399999856948853,3.844111204147339,0.38461539149284363,0.625,9.999999747378752e-06
0.7506848573684692,1.2965984344482422,0.7657657861709595,0.6204379796981812,0.6399999856948853,3.8512370586395264,0.38461539149284363,0.625,9.999999747378752e-06
0.7506848573684692,1.2878222465515137,0.7589285969734192,0.6204379796981812,0.6399999856948853,3.878763198852539,0.38461539149284363,0.625,9.999999747378752e-06
0.7506848573684692,1.2790120840072632,0.7543859481811523,0.6277372241020203,0.6399999856948853,3.8696773052215576,0.38461539149284363,0.625,9.999999747378752e-06
0.7506848573684692,1.2699882984161377,0.7543859481811523,0.6277372241020203,0.6399999856948853,3.86635684967041,0.38461539149284363,0.625,9.999999747378752e-06
0.7506848573684692,1.2643524408340454,0.7589285969734192,0.6204379796981812,0.6399999856948853,3.8347275257110596,0.38461539149284363,0.625,9.999999747378752e-06
0.7486338019371033,1.253843069076538,0.7657657861709595,0.6204379796981812,0.6399999856948853,3.854571580886841,0.38461539149284363,0.625,9.999999747378752e-06
0.7506848573684692,1.245671033859253,0.7657657861709595,0.6204379796981812,0.6399999856948853,3.8147475719451904,0.38461539149284363,0.625,9.999999747378752e-06
0.7506848573684692,1.2345799207687378,0.7657657861709595,0.6204379796981812,0.6399999856948853,3.8191843032836914,0.38461539149284363,0.625,9.999999747378752e-06
0.7506848573684692,1.2268356084823608,0.7657657861709595,0.6204379796981812,0.6399999856948853,3.8104186058044434,0.38461539149284363,0.625,9.999999747378752e-06
0.7506848573684692,1.2203470468521118,0.7657657861709595,0.6204379796981812,0.6399999856948853,3.788033962249756,0.38461539149284363,0.625,9.999999747378752e-06
0.7486338019371033,1.2108659744262695,0.7657657861709595,0.6204379796981812,0.6399999856948853,3.823331117630005,0.38461539149284363,0.625,9.999999747378752e-06
0.7486338019371033,1.20278799533844,0.76106196641922,0.6277372241020203,0.6399999856948853,3.846726894378662,0.38461539149284363,0.625,9.999999747378752e-06
0.7486338019371033,1.194567322731018,0.76106196641922,0.6277372241020203,0.6399999856948853,3.8201375007629395,0.38461539149284363,0.625,9.999999747378752e-06
0.7486338019371033,1.1848654747009277,0.76106196641922,0.6277372241020203,0.6399999856948853,3.829547166824341,0.38461539149284363,0.625,9.999999747378752e-06
0.7486338019371033,1.1794216632843018,0.7589285969734192,0.6204379796981812,0.6399999856948853,3.8046956062316895,0.38461539149284363,0.625,9.999999747378752e-06
0.7486338019371033,1.1684269905090332,0.7589285969734192,0.6204379796981812,0.6399999856948853,3.8224635124206543,0.38461539149284363,0.625,9.999999747378752e-06
0.7486338019371033,1.1607285737991333,0.7589285969734192,0.6204379796981812,0.6399999856948853,3.8153507709503174,0.38461539149284363,0.625,9.999999747378752e-06
0.7486338019371033,1.1525379419326782,0.7589285969734192,0.6204379796981812,0.6399999856948853,3.809579372406006,0.38461539149284363,0.625,9.999999747378752e-06
0.7486338019371033,1.1466223001480103,0.7589285969734192,0.6204379796981812,0.6399999856948853,3.791733741760254,0.38461539149284363,0.625,9.999999747378752e-06
0.7486338019371033,1.1382815837860107,0.7657657861709595,0.6204379796981812,0.6399999856948853,3.787823438644409,0.38461539149284363,0.625,9.999999747378752e-06
0.7486338019371033,1.1292420625686646,0.7678571343421936,0.6277372241020203,0.6399999856948853,3.7976512908935547,0.38461539149284363,0.625,9.999999747378752e-06
0.7486338019371033,1.120513916015625,0.76106196641922,0.6277372241020203,0.6399999856948853,3.799119472503662,0.38461539149284363,0.625,9.999999747378752e-06
0.7486338019371033,1.113290548324585,0.7631579041481018,0.6350364685058594,0.6399999856948853,3.815000295639038,0.38461539149284363,0.625,9.999999747378752e-06
0.7486338019371033,1.1071230173110962,0.7631579041481018,0.6350364685058594,0.6399999856948853,3.829241991043091,0.38461539149284363,0.625,9.999999747378752e-06
0.7486338019371033,1.0994853973388672,0.76106196641922,0.6277372241020203,0.6399999856948853,3.800280809402466,0.38461539149284363,0.625,9.999999747378752e-06
0.7486338019371033,1.0912847518920898,0.76106196641922,0.6277372241020203,0.6399999856948853,3.7887465953826904,0.38461539149284363,0.625,9.999999747378752e-06
0.7486338019371033,1.0859946012496948,0.7678571343421936,0.6277372241020203,0.6399999856948853,3.7790400981903076,0.38461539149284363,0.625,9.999999747378752e-06
0.7486338019371033,1.0780898332595825,0.7678571343421936,0.6277372241020203,0.6399999856948853,3.78665828704834,0.38461539149284363,0.625,9.999999747378752e-06
0.7486338019371033,1.0699807405471802,0.7747747898101807,0.6277372241020203,0.6399999856948853,3.7643823623657227,0.38461539149284363,0.625,9.999999747378752e-06
0.7486338019371033,1.0634093284606934,0.7747747898101807,0.6277372241020203,0.6399999856948853,3.7715723514556885,0.38461539149284363,0.625,9.999999747378752e-06
0.7486338019371033,1.0560123920440674,0.7767857313156128,0.6350364685058594,0.6399999856948853,3.772303342819214,0.38461539149284363,0.625,9.999999747378752e-06
0.7486338019371033,1.048520803451538,0.7767857313156128,0.6350364685058594,0.6399999856948853,3.7707178592681885,0.38461539149284363,0.625,9.999999747378752e-06
0.7486338019371033,1.041580319404602,0.778761088848114,0.6423357725143433,0.6399999856948853,3.7781596183776855,0.38461539149284363,0.625,9.999999747378752e-06
0.7486338019371033,1.0349947214126587,0.778761088848114,0.6423357725143433,0.6399999856948853,3.7753586769104004,0.38461539149284363,0.625,9.999999747378752e-06
0.7486338019371033,1.0279746055603027,0.778761088848114,0.6423357725143433,0.6399999856948853,3.79302978515625,0.38461539149284363,0.625,9.999999747378752e-06
0.7486338019371033,1.0209428071975708,0.780701756477356,0.6496350169181824,0.6399999856948853,3.794891357421875,0.38461539149284363,0.625,9.999999747378752e-06
0.7486338019371033,1.0166858434677124,0.782608687877655,0.6569343209266663,0.6399999856948853,3.8125946521759033,0.38461539149284363,0.625,9.999999747378752e-06
0.7486338019371033,1.0078883171081543,0.7758620977401733,0.6569343209266663,0.6399999856948853,3.8111236095428467,0.38461539149284363,0.625,9.999999747378752e-06
0.7486338019371033,1.000931978225708,0.7758620977401733,0.6569343209266663,0.6399999856948853,3.7923641204833984,0.38461539149284363,0.625,9.999999747378752e-06
0.7486338019371033,0.9952627420425415,0.780701756477356,0.6496350169181824,0.6399999856948853,3.780487060546875,0.38461539149284363,0.625,9.999999747378752e-06
0.7486338019371033,0.9881043434143066,0.780701756477356,0.6496350169181824,0.6399999856948853,3.765191078186035,0.38461539149284363,0.625,9.999999747378752e-06
0.7486338019371033,0.981003999710083,0.780701756477356,0.6496350169181824,0.6399999856948853,3.7515501976013184,0.38461539149284363,0.625,9.999999747378752e-06
0.7486338019371033,0.9770843386650085,0.778761088848114,0.6423357725143433,0.6399999856948853,3.7659108638763428,0.38461539149284363,0.625,9.999999747378752e-06
0.7486338019371033,0.9697284698486328,0.780701756477356,0.6496350169181824,0.6399999856948853,3.7630627155303955,0.38461539149284363,0.625,9.999999747378752e-06
0.7486338019371033,0.9639434218406677,0.7863247990608215,0.6715328693389893,0.6399999856948853,3.783191442489624,0.38461539149284363,0.625,9.999999747378752e-06
0.7486338019371033,0.9609515070915222,0.782608687877655,0.6569343209266663,0.6399999856948853,3.760629415512085,0.38461539149284363,0.625,9.999999747378752e-06
0.7486338019371033,0.9508273005485535,0.7844827771186829,0.6642335653305054,0.6399999856948853,3.7624566555023193,0.38461539149284363,0.625,9.999999747378752e-06
0.7486338019371033,0.9458171129226685,0.7844827771186829,0.6642335653305054,0.6399999856948853,3.7693746089935303,0.38461539149284363,0.625,9.999999747378752e-06
0.7486338019371033,0.9398033022880554,0.7844827771186829,0.6642335653305054,0.6399999856948853,3.7593994140625,0.38461539149284363,0.625,9.999999747378752e-06
0.7486338019371033,0.9341890215873718,0.7844827771186829,0.6642335653305054,0.6399999856948853,3.7573940753936768,0.38461539149284363,0.625,9.999999747378752e-06
0.7486338019371033,0.9282196760177612,0.7844827771186829,0.6642335653305054,0.6399999856948853,3.758664608001709,0.38461539149284363,0.625,9.999999747378752e-06
0.7486338019371033,0.9224157929420471,0.7844827771186829,0.6642335653305054,0.6399999856948853,3.7574009895324707,0.38461539149284363,0.625,9.999999747378752e-06
0.7486338019371033,0.9172771573066711,0.7777777910232544,0.6642335653305054,0.6399999856948853,3.756033182144165,0.38461539149284363,0.625,9.999999747378752e-06
0.7486338019371033,0.9134457111358643,0.7844827771186829,0.6642335653305054,0.6399999856948853,3.7394814491271973,0.38461539149284363,0.625,9.999999747378752e-06
0.7486338019371033,0.9075829386711121,0.7881355881690979,0.6788321137428284,0.6399999856948853,3.7711145877838135,0.38461539149284363,0.625,9.999999747378752e-06
0.7486338019371033,0.901061475276947,0.7804877758026123,0.7007299065589905,0.6399999856948853,3.778430223464966,0.38461539149284363,0.625,9.999999747378752e-06
0.7486338019371033,0.894463062286377,0.7868852615356445,0.7007299065589905,0.6399999856948853,3.757380962371826,0.38461539149284363,0.625,9.999999747378752e-06
0.7486338019371033,0.8881978392601013,0.800000011920929,0.6715328693389893,0.6399999856948853,3.72495698928833,0.38461539149284363,0.625,9.999999747378752e-06
0.7486338019371033,0.8853318095207214,0.7931034564971924,0.6715328693389893,0.6399999856948853,3.7264585494995117,0.38461539149284363,0.625,9.999999747378752e-06
0.7486338019371033,0.8814828991889954,0.8125,0.6642335653305054,0.6399999856948853,3.700906276702881,0.38461539149284363,0.625,9.999999747378752e-06
0.7486338019371033,0.873336136341095,0.8086956739425659,0.6788321137428284,0.6399999856948853,3.7392311096191406,0.38461539149284363,0.625,9.999999747378752e-06
0.7486338019371033,0.8682170510292053,0.7983193397521973,0.6934306621551514,0.6399999856948853,3.7319180965423584,0.38461539149284363,0.625,9.999999747378752e-06
0.7486338019371033,0.8643346428871155,0.7868852615356445,0.7007299065589905,0.6399999856948853,3.743654251098633,0.38461539149284363,0.625,9.999999747378752e-06
0.7486338019371033,0.8584064245223999,0.7868852615356445,0.7007299065589905,0.6399999856948853,3.730814218521118,0.38461539149284363,0.625,9.999999747378752e-06
0.7486338019371033,0.8546575903892517,0.7916666865348816,0.6934306621551514,0.6399999856948853,3.7195775508880615,0.38461539149284363,0.625,9.999999747378752e-06
0.7486338019371033,0.8500415682792664,0.8245614171028137,0.6861313581466675,0.6399999856948853,3.705209970474243,0.3333333432674408,0.5,9.999999747378752e-06
0.7486338019371033,0.8451056480407715,0.8260869383811951,0.6934306621551514,0.6399999856948853,3.713373899459839,0.38461539149284363,0.625,9.999999747378752e-06
0.7486338019371033,0.8403608202934265,0.8016529083251953,0.7080292105674744,0.6399999856948853,3.725184679031372,0.38461539149284363,0.625,9.999999747378752e-06
0.7486338019371033,0.8349723815917969,0.7903226017951965,0.7153284549713135,0.6399999856948853,3.7305872440338135,0.38461539149284363,0.625,9.999999747378752e-06
0.7486338019371033,0.8313470482826233,0.7903226017951965,0.7153284549713135,0.6399999856948853,3.743433713912964,0.38461539149284363,0.625,9.999999747378752e-06
0.7486338019371033,0.8264669179916382,0.7967479825019836,0.7153284549713135,0.6399999856948853,3.730781078338623,0.38461539149284363,0.625,9.999999747378752e-06
0.7486338019371033,0.8221886157989502,0.8235294222831726,0.7153284549713135,0.6399999856948853,3.7132298946380615,0.38461539149284363,0.625,9.999999747378752e-06
0.7486338019371033,0.8177322745323181,0.8166666626930237,0.7153284549713135,0.6399999856948853,3.7223377227783203,0.38461539149284363,0.625,9.999999747378752e-06
0.7486338019371033,0.8130746483802795,0.7967479825019836,0.7153284549713135,0.6399999856948853,3.725445032119751,0.38461539149284363,0.625,9.999999747378752e-06
0.7486338019371033,0.8092125058174133,0.800000011920929,0.7299270033836365,0.6399999856948853,3.731485605239868,0.38461539149284363,0.625,9.999999747378752e-06
0.7486338019371033,0.804659366607666,0.800000011920929,0.7299270033836365,0.6399999856948853,3.7151832580566406,0.38461539149284363,0.625,9.999999747378752e-06
0.7486338019371033,0.8002607822418213,0.8235294222831726,0.7153284549713135,0.6399999856948853,3.6975979804992676,0.3333333432674408,0.5,9.999999747378752e-06
0.7486338019371033,0.7968613505363464,0.8235294222831726,0.7153284549713135,0.6399999856948853,3.6977553367614746,0.3333333432674408,0.5,9.999999747378752e-06
0.7486338019371033,0.791824996471405,0.824999988079071,0.7226277589797974,0.6399999856948853,3.6964190006256104,0.3333333432674408,0.5,9.999999747378752e-06
0.7486338019371033,0.7890806198120117,0.831932783126831,0.7226277589797974,0.6399999856948853,3.695188522338867,0.3333333432674408,0.5,9.999999747378752e-06
0.7486338019371033,0.7838531732559204,0.8278688788414001,0.7372262477874756,0.6399999856948853,3.7000038623809814,0.3333333432674408,0.5,9.999999747378752e-06
0.7486338019371033,0.7793394923210144,0.8347107172012329,0.7372262477874756,0.6399999856948853,3.690976858139038,0.3333333432674408,0.5,9.999999747378752e-06
0.7486338019371033,0.7774609327316284,0.8145161271095276,0.7372262477874756,0.6399999856948853,3.7078189849853516,0.38461539149284363,0.625,9.999999747378752e-06
0.7486338019371033,0.7734053730964661,0.8278688788414001,0.7372262477874756,0.6399999856948853,3.693915843963623,0.3333333432674408,0.5,9.999999747378752e-06
0.7486338019371033,0.7674411535263062,0.8416666388511658,0.7372262477874756,0.6399999856948853,3.697391986846924,0.3333333432674408,0.5,9.999999747378752e-06
0.7486338019371033,0.7640259861946106,0.8416666388511658,0.7372262477874756,0.6399999856948853,3.685886859893799,0.3333333432674408,0.5,9.999999747378752e-06
0.7486338019371033,0.7596795558929443,0.848739504814148,0.7372262477874756,0.6399999856948853,3.684293746948242,0.3333333432674408,0.5,9.999999747378752e-06
0.7486338019371033,0.761489748954773,0.8159999847412109,0.7445255517959595,0.6399999856948853,3.737170934677124,0.38461539149284363,0.625,9.999999747378752e-06
0.7486338019371033,0.7525161504745483,0.8159999847412109,0.7445255517959595,0.6399999856948853,3.698422431945801,0.38461539149284363,0.625,9.999999747378752e-06
0.7486338019371033,0.7496844530105591,0.848739504814148,0.7372262477874756,0.6399999856948853,3.68168306350708,0.3333333432674408,0.5,9.999999747378752e-06
0.7486338019371033,0.7449352145195007,0.8500000238418579,0.7445255517959595,0.6399999856948853,3.689085006713867,0.38461539149284363,0.625,9.999999747378752e-06
0.7486338019371033,0.7407639026641846,0.8360655903816223,0.7445255517959595,0.6399999856948853,3.6861202716827393,0.38461539149284363,0.625,9.999999747378752e-06
0.7486338019371033,0.7373836636543274,0.8360655903816223,0.7445255517959595,0.6399999856948853,3.6788675785064697,0.3333333432674408,0.5,9.999999747378752e-06
0.7486338019371033,0.7335583567619324,0.8500000238418579,0.7445255517959595,0.6399999856948853,3.670588493347168,0.3333333432674408,0.5,9.999999747378752e-06
0.7486338019371033,0.7300935983657837,0.8500000238418579,0.7445255517959595,0.6399999856948853,3.6761090755462646,0.3333333432674408,0.5,9.999999747378752e-06
0.7486338019371033,0.7273412942886353,0.8500000238418579,0.7445255517959595,0.6399999856948853,3.6615192890167236,0.3333333432674408,0.5,9.999999747378752e-06
0.7486338019371033,0.723727822303772,0.8429751992225647,0.7445255517959595,0.6399999856948853,3.6828043460845947,0.3333333432674408,0.5,9.999999747378752e-06
0.7486338019371033,0.7198736071586609,0.8373983502388,0.7518247961997986,0.6399999856948853,3.6862566471099854,0.3333333432674408,0.5,9.999999747378752e-06
0.7486338019371033,0.7192716002464294,0.8429751992225647,0.7445255517959595,0.6399999856948853,3.6360719203948975,0.3333333432674408,0.5,9.999999747378752e-06
0.7486338019371033,0.7148275971412659,0.8559321761131287,0.7372262477874756,0.6399999856948853,3.627673387527466,0.3333333432674408,0.5,9.999999747378752e-06
0.7486338019371033,0.7081930041313171,0.8500000238418579,0.7445255517959595,0.6399999856948853,3.6643621921539307,0.3333333432674408,0.5,9.999999747378752e-06
0.7486338019371033,0.7052000761032104,0.8442623019218445,0.7518247961997986,0.6399999856948853,3.67104434967041,0.3333333432674408,0.5,9.999999747378752e-06
0.7486338019371033,0.7019210457801819,0.8442623019218445,0.7518247961997986,0.6399999856948853,3.679752826690674,0.3333333432674408,0.5,9.999999747378752e-06
0.7486338019371033,0.6988828182220459,0.8442623019218445,0.7518247961997986,0.6399999856948853,3.6743505001068115,0.3333333432674408,0.5,9.999999747378752e-06
0.7486338019371033,0.6953494548797607,0.8442623019218445,0.7518247961997986,0.6399999856948853,3.6509811878204346,0.3333333432674408,0.5,9.999999747378752e-06
0.7486338019371033,0.6926010251045227,0.8512396812438965,0.7518247961997986,0.6399999856948853,3.637028694152832,0.3333333432674408,0.5,9.999999747378752e-06
0.7486338019371033,0.6893332004547119,0.8583333492279053,0.7518247961997986,0.6399999856948853,3.6376538276672363,0.3333333432674408,0.5,9.999999747378752e-06
0.7486338019371033,0.6861085891723633,0.8583333492279053,0.7518247961997986,0.6399999856948853,3.6285648345947266,0.3333333432674408,0.5,9.999999747378752e-06
0.7486338019371033,0.6843956112861633,0.8512396812438965,0.7518247961997986,0.6399999856948853,3.6558926105499268,0.3333333432674408,0.5,9.999999747378752e-06
0.7486338019371033,0.6790222525596619,0.8512396812438965,0.7518247961997986,0.6399999856948853,3.6418800354003906,0.3333333432674408,0.5,9.999999747378752e-06
0.7486338019371033,0.6763866543769836,0.8512396812438965,0.7518247961997986,0.6399999856948853,3.6231377124786377,0.3333333432674408,0.5,9.999999747378752e-06
0.7486338019371033,0.6718993186950684,0.8512396812438965,0.7518247961997986,0.6399999856948853,3.626898765563965,0.3333333432674408,0.5,9.999999747378752e-06
0.7486338019371033,0.6696544885635376,0.8524590134620667,0.7591241002082825,0.6399999856948853,3.6530303955078125,0.3333333432674408,0.5,9.999999747378752e-06
0.7486338019371033,0.6663429737091064,0.8425197005271912,0.7810218930244446,0.6399999856948853,3.653763771057129,0.3333333432674408,0.5,9.999999747378752e-06
0.7486338019371033,0.6627784967422485,0.8560000061988831,0.7810218930244446,0.6399999856948853,3.6444449424743652,0.3333333432674408,0.5,9.999999747378752e-06
0.7486338019371033,0.6586606502532959,0.8583333492279053,0.7518247961997986,0.6399999856948853,3.6145598888397217,0.3333333432674408,0.5,9.999999747378752e-06
0.7486338019371033,0.6563577651977539,0.8655462265014648,0.7518247961997986,0.6399999856948853,3.6070897579193115,0.3333333432674408,0.5,9.999999747378752e-06
0.7486338019371033,0.653285801410675,0.8583333492279053,0.7518247961997986,0.6399999856948853,3.6164045333862305,0.3333333432674408,0.5,9.999999747378752e-06
0.7486338019371033,0.6504907011985779,0.8583333492279053,0.7518247961997986,0.6399999856948853,3.6276423931121826,0.3333333432674408,0.5,9.999999747378752e-06
0.7486338019371033,0.6479915380477905,0.8617886304855347,0.7737226486206055,0.6399999856948853,3.6242477893829346,0.3333333432674408,0.5,9.999999747378752e-06
0.7486338019371033,0.6459273099899292,0.8617886304855347,0.7737226486206055,0.6399999856948853,3.629760980606079,0.3333333432674408,0.5,9.999999747378752e-06
0.7486338019371033,0.642116904258728,0.8629032373428345,0.7810218930244446,0.6399999856948853,3.6247715950012207,0.3333333432674408,0.5,9.999999747378752e-06
0.7486338019371033,0.6392982006072998,0.8617886304855347,0.7737226486206055,0.6399999856948853,3.6181976795196533,0.3333333432674408,0.5,9.999999747378752e-06
0.7486338019371033,0.6362693905830383,0.8677685856819153,0.7664233446121216,0.6399999856948853,3.606480598449707,0.3333333432674408,0.5,9.999999747378752e-06
0.7486338019371033,0.6336042284965515,0.8677685856819153,0.7664233446121216,0.6399999856948853,3.611252546310425,0.3333333432674408,0.5,9.999999747378752e-06
0.7486338019371033,0.6319353580474854,0.8629032373428345,0.7810218930244446,0.6399999856948853,3.6255743503570557,0.3333333432674408,0.5,9.999999747378752e-06
0.7486338019371033,0.6288623213768005,0.8560000061988831,0.7810218930244446,0.6399999856948853,3.626108169555664,0.3333333432674408,0.5,9.999999747378752e-06
0.7486338019371033,0.6255149245262146,0.8560000061988831,0.7810218930244446,0.6399999856948853,3.6283721923828125,0.3333333432674408,0.5,9.999999747378752e-06
0.7486338019371033,0.6228600144386292,0.8571428656578064,0.7883211970329285,0.6399999856948853,3.6223011016845703,0.3333333432674408,0.5,9.999999747378752e-06
0.7486338019371033,0.6197620630264282,0.8770492076873779,0.7810218930244446,0.6399999856948853,3.5962843894958496,0.3333333432674408,0.5,9.999999747378752e-06
0.7486338019371033,0.6172144412994385,0.8760330677032471,0.7737226486206055,0.6399999856948853,3.59855580329895,0.3333333432674408,0.5,9.999999747378752e-06
0.7486338019371033,0.6142949461936951,0.8770492076873779,0.7810218930244446,0.6399999856948853,3.604846715927124,0.3333333432674408,0.5,9.999999747378752e-06
0.7486338019371033,0.6115449070930481,0.8770492076873779,0.7810218930244446,0.6399999856948853,3.59371280670166,0.3333333432674408,0.5,9.999999747378752e-06
0.7486338019371033,0.6090123057365417,0.8760330677032471,0.7737226486206055,0.6399999856948853,3.5928125381469727,0.3333333432674408,0.5,9.999999747378752e-06
0.7486338019371033,0.6068152785301208,0.8770492076873779,0.7810218930244446,0.6399999856948853,3.5859627723693848,0.3333333432674408,0.5,9.999999747378752e-06
0.7486338019371033,0.6036449074745178,0.8780487775802612,0.7883211970329285,0.6399999856948853,3.591465950012207,0.3333333432674408,0.5,9.999999747378752e-06
0.7486338019371033,0.601776123046875,0.871999979019165,0.7956204414367676,0.6399999856948853,3.591338872909546,0.3333333432674408,0.5,9.999999747378752e-06
0.7486338019371033,0.5998931527137756,0.869918704032898,0.7810218930244446,0.6399999856948853,3.5683062076568604,0.3333333432674408,0.5,9.999999747378752e-06
0.7486338019371033,0.5959317684173584,0.8790322542190552,0.7956204414367676,0.6399999856948853,3.6024858951568604,0.3333333432674408,0.5,9.999999747378752e-06
0.7486338019371033,0.5944594144821167,0.8730158805847168,0.8029196858406067,0.6399999856948853,3.6103992462158203,0.3333333432674408,0.5,9.999999747378752e-06
0.7486338019371033,0.5929200053215027,0.871999979019165,0.7956204414367676,0.6399999856948853,3.5844383239746094,0.3333333432674408,0.5,9.999999747378752e-06
0.7486338019371033,0.5884560942649841,0.871999979019165,0.7956204414367676,0.6399999856948853,3.5859479904174805,0.3333333432674408,0.5,9.999999747378752e-06
0.7486338019371033,0.5868346095085144,0.871999979019165,0.7956204414367676,0.6399999856948853,3.5758979320526123,0.3333333432674408,0.5,9.999999747378752e-06
0.7486338019371033,0.5834187865257263,0.8730158805847168,0.8029196858406067,0.6399999856948853,3.589224100112915,0.3333333432674408,0.5,9.999999747378752e-06
0.7486338019371033,0.5819399356842041,0.8730158805847168,0.8029196858406067,0.6399999856948853,3.593719005584717,0.3333333432674408,0.5,9.999999747378752e-06
0.7486338019371033,0.5800892114639282,0.8730158805847168,0.8029196858406067,0.6399999856948853,3.5984199047088623,0.3333333432674408,0.5,9.999999747378752e-06
0.7486338019371033,0.5770404934883118,0.8730158805847168,0.8029196858406067,0.6399999856948853,3.5769712924957275,0.3333333432674408,0.5,9.999999747378752e-06
0.7486338019371033,0.5746344923973083,0.8730158805847168,0.8029196858406067,0.6399999856948853,3.5791587829589844,0.3333333432674408,0.5,9.999999747378752e-06
0.7486338019371033,0.5718158483505249,0.8730158805847168,0.8029196858406067,0.6399999856948853,3.5624091625213623,0.3333333432674408,0.5,9.999999747378752e-06
0.7486338019371033,0.5696972608566284,0.8730158805847168,0.8029196858406067,0.6399999856948853,3.5630745887756348,0.3333333432674408,0.5,9.999999747378752e-06
0.7486338019371033,0.5671257376670837,0.8934426307678223,0.7956204414367676,0.6399999856948853,3.543945789337158,0.3333333432674408,0.5,9.999999747378752e-06
0.7486338019371033,0.5653968453407288,0.8934426307678223,0.7956204414367676,0.6399999856948853,3.5429885387420654,0.3333333432674408,0.5,9.999999747378752e-06
0.7486338019371033,0.5637167096138,0.8925619721412659,0.7883211970329285,0.6399999856948853,3.5465946197509766,0.3333333432674408,0.5,9.999999747378752e-06
0.7486338019371033,0.5607298016548157,0.8799999952316284,0.8029196858406067,0.6399999856948853,3.576664924621582,0.3333333432674408,0.5,9.999999747378752e-06
0.7486338019371033,0.5582413077354431,0.8809523582458496,0.8102189898490906,0.6399999856948853,3.574812412261963,0.3333333432674408,0.5,9.999999747378752e-06
0.7486338019371033,0.5559089183807373,0.8818897604942322,0.8175182342529297,0.6399999856948853,3.592294692993164,0.3333333432674408,0.5,9.999999747378752e-06
0.7486338019371033,0.5545824766159058,0.8809523582458496,0.8102189898490906,0.6399999856948853,3.563530445098877,0.3333333432674408,0.5,9.999999747378752e-06
0.7486338019371033,0.5511457920074463,0.8809523582458496,0.8102189898490906,0.6399999856948853,3.557577133178711,0.3333333432674408,0.5,9.999999747378752e-06
0.7486338019371033,0.5501522421836853,0.8809523582458496,0.8102189898490906,0.6399999856948853,3.5820624828338623,0.3333333432674408,0.5,9.999999747378752e-06
0.7486338019371033,0.5468965172767639,0.8809523582458496,0.8102189898490906,0.6399999856948853,3.5703983306884766,0.3333333432674408,0.5,9.999999747378752e-06
0.7486338019371033,0.5460259914398193,0.8809523582458496,0.8102189898490906,0.6399999856948853,3.5420572757720947,0.3333333432674408,0.5,9.999999747378752e-06
0.7486338019371033,0.5423051118850708,0.8880000114440918,0.8102189898490906,0.6399999856948853,3.556288480758667,0.3333333432674408,0.5,9.999999747378752e-06
0.7486338019371033,0.5404928922653198,0.8880000114440918,0.8102189898490906,0.6399999856948853,3.5693557262420654,0.3333333432674408,0.5,9.999999747378752e-06
0.7486338019371033,0.5378003120422363,0.8897637724876404,0.8248175382614136,0.6399999856948853,3.5545778274536133,0.3333333432674408,0.5,9.999999747378752e-06
0.7486338019371033,0.5364052057266235,0.8951612710952759,0.8102189898490906,0.6399999856948853,3.5285239219665527,0.3636363744735718,0.5,9.999999747378752e-06
0.7486338019371033,0.5340339541435242,0.8951612710952759,0.8102189898490906,0.6399999856948853,3.542642116546631,0.3636363744735718,0.5,9.999999747378752e-06
0.7486338019371033,0.5320879220962524,0.8897637724876404,0.8248175382614136,0.6399999856948853,3.562483787536621,0.3333333432674408,0.5,9.999999747378752e-06
0.7486338019371033,0.529538094997406,0.8897637724876404,0.8248175382614136,0.6399999856948853,3.5528080463409424,0.3636363744735718,0.5,9.999999747378752e-06
0.7486338019371033,0.527394711971283,0.8897637724876404,0.8248175382614136,0.6399999856948853,3.5487470626831055,0.3636363744735718,0.5,9.999999747378752e-06
0.7486338019371033,0.5255173444747925,0.890625,0.8321167826652527,0.6399999856948853,3.5566463470458984,0.3636363744735718,0.5,9.999999747378752e-06
