F1Score,loss,precision,recall,val_F1Score,val_loss,val_precision,val_recall,learning_rate
0.7452054619789124,9.773052215576172,0.5989847779273987,0.8613138794898987,0.7272727489471436,5.8466386795043945,0.6363636255264282,0.875,9.999999747378752e-06
0.7452054619789124,8.948334693908691,0.5967742204666138,0.8102189898490906,0.7272727489471436,5.578128337860107,0.6190476417541504,0.8125,9.999999747378752e-06
0.7417581677436829,8.289959907531738,0.6114285588264465,0.7810218930244446,0.7272727489471436,5.367921352386475,0.6190476417541504,0.8125,9.999999747378752e-06
0.7417581677436829,7.756921768188477,0.6104651093482971,0.7664233446121216,0.7272727489471436,5.20780086517334,0.6000000238418579,0.75,9.999999747378752e-06
0.7382920384407043,7.354594707489014,0.6219512224197388,0.7445255517959595,0.7272727489471436,5.100768566131592,0.6111111044883728,0.6875,9.999999747378752e-06
0.7382920384407043,7.054195880889893,0.6129032373428345,0.6934306621551514,0.7272727489471436,5.026187419891357,0.6111111044883728,0.6875,9.999999747378752e-06
0.7403314113616943,6.81332540512085,0.6133333444595337,0.6715328693389893,0.7272727489471436,4.977759838104248,0.6111111044883728,0.6875,9.999999747378752e-06
0.7403314113616943,6.623203754425049,0.6013985872268677,0.6277372241020203,0.7272727489471436,4.9454522132873535,0.6470588445663452,0.6875,9.999999747378752e-06
0.7368420362472534,6.499271869659424,0.5899280309677124,0.5985401272773743,0.7272727489471436,4.921866416931152,0.6470588445663452,0.6875,9.999999747378752e-06
0.7368420362472534,6.384126663208008,0.5869565010070801,0.5912408828735352,0.7272727489471436,4.907884120941162,0.6470588445663452,0.6875,9.999999747378752e-06
0.7388888597488403,6.290358543395996,0.5864661931991577,0.569343090057373,0.7272727489471436,4.899659633636475,0.6875,0.6875,9.999999747378752e-06
0.7374300956726074,6.184523582458496,0.5813953280448914,0.5474452376365662,0.7272727489471436,4.896430969238281,0.6875,0.6875,9.999999747378752e-06
0.7374300956726074,6.108510494232178,0.5748031735420227,0.5328466892242432,0.7272727489471436,4.891768455505371,0.6875,0.6875,9.999999747378752e-06
0.7303370237350464,6.04042911529541,0.577235758304596,0.5182482004165649,0.7272727489471436,4.896981716156006,0.6428571343421936,0.5625,9.999999747378752e-06
0.7303370237350464,5.980494499206543,0.5714285969734192,0.49635037779808044,0.7272727489471436,4.897705078125,0.6428571343421936,0.5625,9.999999747378752e-06
0.7303370237350464,5.922952651977539,0.5714285969734192,0.49635037779808044,0.7272727489471436,4.8911824226379395,0.6428571343421936,0.5625,9.999999747378752e-06
0.7303370237350464,5.865272045135498,0.5714285969734192,0.49635037779808044,0.7272727489471436,4.886650085449219,0.6428571343421936,0.5625,9.999999747378752e-06
0.7303370237350464,5.811354160308838,0.5714285969734192,0.49635037779808044,0.7272727489471436,4.897421836853027,0.6153846383094788,0.5,9.999999747378752e-06
0.7303370237350464,5.7565789222717285,0.5811966061592102,0.49635037779808044,0.7272727489471436,4.8930277824401855,0.6153846383094788,0.5,9.999999747378752e-06
0.7303370237350464,5.704806327819824,0.5775862336158752,0.48905110359191895,0.7272727489471436,4.891953468322754,0.5833333134651184,0.4375,9.999999747378752e-06
0.7303370237350464,5.652946949005127,0.5775862336158752,0.48905110359191895,0.7272727489471436,4.884139537811279,0.6153846383094788,0.5,9.999999747378752e-06
0.7303370237350464,5.631429672241211,0.5726495981216431,0.48905110359191895,0.7272727489471436,4.863895416259766,0.6153846383094788,0.5,9.999999747378752e-06
0.7338935136795044,5.558255672454834,0.5762711763381958,0.49635037779808044,0.7272727489471436,4.8600616455078125,0.6153846383094788,0.5,9.999999747378752e-06
0.7303370237350464,5.510447025299072,0.5775862336158752,0.48905110359191895,0.7272727489471436,4.854451656341553,0.6153846383094788,0.5,9.999999747378752e-06
0.7338935136795044,5.459404468536377,0.5775862336158752,0.48905110359191895,0.7272727489471436,4.84531307220459,0.6153846383094788,0.5,9.999999747378752e-06
0.7338935136795044,5.4155731201171875,0.5775862336158752,0.48905110359191895,0.7272727489471436,4.845866680145264,0.6153846383094788,0.5,9.999999747378752e-06
0.7338935136795044,5.3606414794921875,0.5775862336158752,0.48905110359191895,0.7272727489471436,4.83799409866333,0.6153846383094788,0.5,9.999999747378752e-06
0.7338935136795044,5.3178911209106445,0.5775862336158752,0.48905110359191895,0.7272727489471436,4.825869083404541,0.6153846383094788,0.5,9.999999747378752e-06
0.7338935136795044,5.262149810791016,0.5775862336158752,0.48905110359191895,0.7272727489471436,4.819653511047363,0.6153846383094788,0.5,9.999999747378752e-06
0.7338935136795044,5.2178449630737305,0.5775862336158752,0.48905110359191895,0.7272727489471436,4.816090106964111,0.6153846383094788,0.5,9.999999747378752e-06
0.7338935136795044,5.167647838592529,0.5811966061592102,0.49635037779808044,0.7272727489471436,4.807641506195068,0.6153846383094788,0.5,9.999999747378752e-06
0.7338935136795044,5.123180866241455,0.5811966061592102,0.49635037779808044,0.7272727489471436,4.7984089851379395,0.6153846383094788,0.5,9.999999747378752e-06
0.7338935136795044,5.075918197631836,0.5811966061592102,0.49635037779808044,0.7272727489471436,4.798954486846924,0.6153846383094788,0.5,9.999999747378752e-06
0.7338935136795044,5.028425216674805,0.582608699798584,0.48905110359191895,0.7272727489471436,4.785385608673096,0.6153846383094788,0.5,9.999999747378752e-06
0.7338935136795044,4.976670742034912,0.5726495981216431,0.48905110359191895,0.7272727489471436,4.7803263664245605,0.6153846383094788,0.5,9.999999747378752e-06
0.7338935136795044,4.934813022613525,0.5877193212509155,0.48905110359191895,0.7272727489471436,4.778376579284668,0.6153846383094788,0.5,9.999999747378752e-06
0.7338935136795044,4.88854455947876,0.5877193212509155,0.48905110359191895,0.7272727489471436,4.763546466827393,0.6153846383094788,0.5,9.999999747378752e-06
0.7338935136795044,4.848745822906494,0.5948275923728943,0.5036496520042419,0.7272727489471436,4.762370586395264,0.6153846383094788,0.5,9.999999747378752e-06
0.7374300956726074,4.798635005950928,0.5932203531265259,0.510948896408081,0.7272727489471436,4.7442097663879395,0.6428571343421936,0.5625,9.999999747378752e-06
0.7374300956726074,4.7579474449157715,0.5932203531265259,0.510948896408081,0.7272727489471436,4.7408905029296875,0.6428571343421936,0.5625,9.999999747378752e-06
0.7374300956726074,4.7107744216918945,0.5932203531265259,0.510948896408081,0.7272727489471436,4.731152057647705,0.6428571343421936,0.5625,9.999999747378752e-06
0.7374300956726074,4.672967910766602,0.5982906222343445,0.510948896408081,0.7272727489471436,4.73431921005249,0.6153846383094788,0.5,9.999999747378752e-06
0.7374300956726074,4.627781391143799,0.5982906222343445,0.510948896408081,0.7272727489471436,4.718177318572998,0.6428571343421936,0.5625,9.999999747378752e-06
0.7374300956726074,4.581201076507568,0.6016949415206909,0.5182482004165649,0.7272727489471436,4.7106475830078125,0.6428571343421936,0.5625,9.999999747378752e-06
0.7374300956726074,4.543741226196289,0.6016949415206909,0.5182482004165649,0.7272727489471436,4.705939769744873,0.6428571343421936,0.5625,9.999999747378752e-06
0.7374300956726074,4.504526138305664,0.5916666388511658,0.5182482004165649,0.7272727489471436,4.682485103607178,0.6428571343421936,0.5625,9.999999747378752e-06
0.7409470677375793,4.460115432739258,0.5916666388511658,0.5182482004165649,0.7272727489471436,4.677281379699707,0.6428571343421936,0.5625,9.999999747378752e-06
0.7409470677375793,4.4171247482299805,0.5950413346290588,0.525547444820404,0.7272727489471436,4.669071197509766,0.6428571343421936,0.5625,9.999999747378752e-06
0.7409470677375793,4.377293109893799,0.5966386795043945,0.5182482004165649,0.7272727489471436,4.663391590118408,0.6428571343421936,0.5625,9.999999747378752e-06
0.7409470677375793,4.333924293518066,0.6068376302719116,0.5182482004165649,0.7272727489471436,4.659611701965332,0.6428571343421936,0.5625,9.999999747378752e-06
0.7409470677375793,4.2918500900268555,0.6086956262588501,0.510948896408081,0.7272727489471436,4.6587982177734375,0.6428571343421936,0.5625,9.999999747378752e-06
0.7409470677375793,4.254156589508057,0.6086956262588501,0.510948896408081,0.7272727489471436,4.647524356842041,0.6428571343421936,0.5625,9.999999747378752e-06
0.7409470677375793,4.215481281280518,0.6086956262588501,0.510948896408081,0.7272727489471436,4.636773109436035,0.6428571343421936,0.5625,9.999999747378752e-06
0.7409470677375793,4.1810808181762695,0.6086956262588501,0.510948896408081,0.7272727489471436,4.632330417633057,0.6428571343421936,0.5625,9.999999747378752e-06
0.7409470677375793,4.14041805267334,0.6120689511299133,0.5182482004165649,0.7272727489471436,4.608407497406006,0.6428571343421936,0.5625,9.999999747378752e-06
0.7409470677375793,4.098231792449951,0.6101694703102112,0.525547444820404,0.7272727489471436,4.599120140075684,0.6428571343421936,0.5625,9.999999747378752e-06
0.7444443702697754,4.062285900115967,0.6134454011917114,0.5328466892242432,0.7272727489471436,4.584846496582031,0.6428571343421936,0.5625,9.999999747378752e-06
0.7409470677375793,4.017665863037109,0.6206896305084229,0.525547444820404,0.7272727489471436,4.585563659667969,0.6428571343421936,0.5625,9.999999747378752e-06
0.7409470677375793,3.9882254600524902,0.6173912882804871,0.5182482004165649,0.7272727489471436,4.57848596572876,0.6428571343421936,0.5625,9.999999747378752e-06
0.7409470677375793,3.9440104961395264,0.6206896305084229,0.525547444820404,0.7272727489471436,4.563498497009277,0.6428571343421936,0.5625,9.999999747378752e-06
0.7409470677375793,3.909566879272461,0.6206896305084229,0.525547444820404,0.7272727489471436,4.552566051483154,0.6428571343421936,0.5625,9.999999747378752e-06
0.7409470677375793,3.8772215843200684,0.6206896305084229,0.525547444820404,0.7272727489471436,4.556958198547363,0.6428571343421936,0.5625,9.999999747378752e-06
0.7409470677375793,3.833704710006714,0.6315789222717285,0.525547444820404,0.7272727489471436,4.541044235229492,0.6428571343421936,0.5625,9.999999747378752e-06
0.7409470677375793,3.797952651977539,0.6315789222717285,0.525547444820404,0.7272727489471436,4.536111354827881,0.6428571343421936,0.5625,9.999999747378752e-06
0.7409470677375793,3.7598204612731934,0.626086950302124,0.525547444820404,0.7272727489471436,4.522006511688232,0.6428571343421936,0.5625,9.999999747378752e-06
0.7444443702697754,3.724947452545166,0.6206896305084229,0.525547444820404,0.7272727489471436,4.5090250968933105,0.6428571343421936,0.5625,9.999999747378752e-06
0.7444443702697754,3.690605878829956,0.6239316463470459,0.5328466892242432,0.7272727489471436,4.491672515869141,0.6428571343421936,0.5625,9.999999747378752e-06
0.7444443702697754,3.656858444213867,0.6239316463470459,0.5328466892242432,0.7272727489471436,4.481720447540283,0.6428571343421936,0.5625,9.999999747378752e-06
0.7444443702697754,3.619368553161621,0.6239316463470459,0.5328466892242432,0.7272727489471436,4.472907066345215,0.6428571343421936,0.5625,9.999999747378752e-06
0.7444443702697754,3.5914762020111084,0.6239316463470459,0.5328466892242432,0.7272727489471436,4.4701056480407715,0.6428571343421936,0.5625,9.999999747378752e-06
0.7444443702697754,3.5540432929992676,0.6239316463470459,0.5328466892242432,0.7272727489471436,4.462395191192627,0.6428571343421936,0.5625,9.999999747378752e-06
0.7444443702697754,3.5145254135131836,0.6293103694915771,0.5328466892242432,0.7272727489471436,4.450703144073486,0.6428571343421936,0.5625,9.999999747378752e-06
0.7444443702697754,3.4819462299346924,0.6293103694915771,0.5328466892242432,0.7272727489471436,4.438046455383301,0.6428571343421936,0.5625,9.999999747378752e-06
0.7479223608970642,3.4487547874450684,0.6239316463470459,0.5328466892242432,0.7272727489471436,4.426673412322998,0.6428571343421936,0.5625,9.999999747378752e-06
0.7479223608970642,3.4182028770446777,0.6239316463470459,0.5328466892242432,0.7272727489471436,4.414040565490723,0.6428571343421936,0.5625,9.999999747378752e-06
0.7458562850952148,3.385491132736206,0.6271186470985413,0.540145993232727,0.7272727489471436,4.404236316680908,0.6428571343421936,0.5625,9.999999747378752e-06
0.7458562850952148,3.3527867794036865,0.6333333253860474,0.55474454164505,0.7272727489471436,4.3971686363220215,0.6428571343421936,0.5625,9.999999747378752e-06
0.7458562850952148,3.318828582763672,0.6386554837226868,0.55474454164505,0.7272727489471436,4.384609222412109,0.6428571343421936,0.5625,9.999999747378752e-06
0.7458562850952148,3.293221950531006,0.6416666507720947,0.5620437860488892,0.7272727489471436,4.373910903930664,0.6428571343421936,0.5625,9.999999747378752e-06
0.7458562850952148,3.257920742034912,0.6440678238868713,0.55474454164505,0.7272727489471436,4.3700127601623535,0.6428571343421936,0.5625,9.999999747378752e-06
0.7458562850952148,3.2315433025360107,0.6551724076271057,0.55474454164505,0.7272727489471436,4.367129802703857,0.6428571343421936,0.5625,9.999999747378752e-06
0.7458562850952148,3.1963913440704346,0.6440678238868713,0.55474454164505,0.7272727489471436,4.345930576324463,0.6428571343421936,0.5625,9.999999747378752e-06
0.7458562850952148,3.165255308151245,0.6470588445663452,0.5620437860488892,0.7272727489471436,4.334071636199951,0.6428571343421936,0.5625,9.999999747378752e-06
0.7458562850952148,3.1357641220092773,0.6499999761581421,0.569343090057373,0.7272727489471436,4.322192668914795,0.6428571343421936,0.5625,9.999999747378752e-06
0.7458562850952148,3.1042933464050293,0.6554622054100037,0.569343090057373,0.7272727489471436,4.313600540161133,0.6428571343421936,0.5625,9.999999747378752e-06
0.7458562850952148,3.0724990367889404,0.6583333611488342,0.5766423344612122,0.7272727489471436,4.307416915893555,0.6428571343421936,0.5625,9.999999747378752e-06
0.7458562850952148,3.0457348823547363,0.6554622054100037,0.569343090057373,0.7272727489471436,4.29794454574585,0.6428571343421936,0.5625,9.999999747378752e-06
0.7458562850952148,3.016146659851074,0.6583333611488342,0.5766423344612122,0.7272727489471436,4.2878570556640625,0.6428571343421936,0.5625,9.999999747378752e-06
0.7458562850952148,2.9889910221099854,0.6638655662536621,0.5766423344612122,0.7272727489471436,4.271777629852295,0.6428571343421936,0.5625,9.999999747378752e-06
0.7458562850952148,2.96150541305542,0.6611570119857788,0.5839415788650513,0.7272727489471436,4.263150691986084,0.6428571343421936,0.5625,9.999999747378752e-06
0.7458562850952148,2.9338040351867676,0.6666666865348816,0.5839415788650513,0.7272727489471436,4.251145839691162,0.6428571343421936,0.5625,9.999999747378752e-06
0.7458562850952148,2.909560441970825,0.6638655662536621,0.5766423344612122,0.7272727489471436,4.244827747344971,0.6428571343421936,0.5625,9.999999747378752e-06
0.7458562850952148,2.8829598426818848,0.6722689270973206,0.5839415788650513,0.7272727489471436,4.232367992401123,0.6428571343421936,0.5625,9.999999747378752e-06
0.7458562850952148,2.8605287075042725,0.6722689270973206,0.5839415788650513,0.7272727489471436,4.225345611572266,0.6428571343421936,0.5625,9.999999747378752e-06
0.7458562850952148,2.836928129196167,0.675000011920929,0.5912408828735352,0.7272727489471436,4.207993984222412,0.6428571343421936,0.5625,9.999999747378752e-06
0.7458562850952148,2.811324119567871,0.675000011920929,0.5912408828735352,0.7272727489471436,4.203695774078369,0.6428571343421936,0.5625,9.999999747378752e-06
0.7458562850952148,2.7845706939697266,0.675000011920929,0.5912408828735352,0.7272727489471436,4.1947550773620605,0.6428571343421936,0.5625,9.999999747378752e-06
0.7458562850952148,2.764221429824829,0.6803278923034668,0.6058394312858582,0.7272727489471436,4.17681884765625,0.6428571343421936,0.5625,9.999999747378752e-06
0.7458562850952148,2.737849473953247,0.6776859760284424,0.5985401272773743,0.7272727489471436,4.174415111541748,0.6428571343421936,0.5625,9.999999747378752e-06
0.7458562850952148,2.714552879333496,0.6864407062530518,0.5912408828735352,0.7272727489471436,4.165522575378418,0.6428571343421936,0.5625,9.999999747378752e-06
0.7458562850952148,2.680849313735962,0.6776859760284424,0.5985401272773743,0.7272727489471436,4.145698547363281,0.6428571343421936,0.5625,9.999999747378752e-06
0.7458562850952148,2.662372350692749,0.6803278923034668,0.6058394312858582,0.7272727489471436,4.133025646209717,0.6428571343421936,0.5625,9.999999747378752e-06
0.7458562850952148,2.641902446746826,0.6803278923034668,0.6058394312858582,0.7272727489471436,4.127562999725342,0.6428571343421936,0.5625,9.999999747378752e-06
0.7458562850952148,2.617140293121338,0.6890756487846375,0.5985401272773743,0.7272727489471436,4.124292850494385,0.6428571343421936,0.5625,9.999999747378752e-06
0.7458562850952148,2.5985021591186523,0.6803278923034668,0.6058394312858582,0.7272727489471436,4.104368686676025,0.6428571343421936,0.5625,9.999999747378752e-06
0.7458562850952148,2.5668251514434814,0.6803278923034668,0.6058394312858582,0.7272727489471436,4.099886417388916,0.6428571343421936,0.5625,9.999999747378752e-06
0.7458562850952148,2.5443387031555176,0.6803278923034668,0.6058394312858582,0.7272727489471436,4.083873271942139,0.6428571343421936,0.5625,9.999999747378752e-06
0.7458562850952148,2.5236799716949463,0.6803278923034668,0.6058394312858582,0.7272727489471436,4.07902193069458,0.6428571343421936,0.5625,9.999999747378752e-06
0.7458562850952148,2.49886155128479,0.6833333373069763,0.5985401272773743,0.7272727489471436,4.073286533355713,0.6428571343421936,0.5625,9.999999747378752e-06
0.7458562850952148,2.477447748184204,0.6890756487846375,0.5985401272773743,0.7272727489471436,4.062799453735352,0.6428571343421936,0.5625,9.999999747378752e-06
0.7458562850952148,2.4549388885498047,0.6776859760284424,0.5985401272773743,0.7272727489471436,4.046735763549805,0.6428571343421936,0.5625,9.999999747378752e-06
0.7458562850952148,2.4325551986694336,0.6803278923034668,0.6058394312858582,0.7272727489471436,4.033822059631348,0.6428571343421936,0.5625,9.999999747378752e-06
0.7458562850952148,2.4204230308532715,0.6880000233650208,0.6277372241020203,0.7272727489471436,4.020829677581787,0.6428571343421936,0.5625,9.999999747378752e-06
0.7458562850952148,2.3922905921936035,0.6859503984451294,0.6058394312858582,0.7272727489471436,4.01793909072876,0.6428571343421936,0.5625,9.999999747378752e-06
0.7458562850952148,2.372655153274536,0.6890756487846375,0.5985401272773743,0.7272727489471436,4.010960102081299,0.6428571343421936,0.5625,9.999999747378752e-06
0.7458562850952148,2.350726366043091,0.6890756487846375,0.5985401272773743,0.7272727489471436,3.9984943866729736,0.6428571343421936,0.5625,9.999999747378752e-06
0.7458562850952148,2.333010673522949,0.694915235042572,0.5985401272773743,0.7272727489471436,3.993155002593994,0.6428571343421936,0.5625,9.999999747378752e-06
0.7458562850952148,2.312314748764038,0.694915235042572,0.5985401272773743,0.7272727489471436,3.9779739379882812,0.6428571343421936,0.5625,9.999999747378752e-06
0.7458562850952148,2.2912189960479736,0.6942148804664612,0.6131386756896973,0.7272727489471436,3.968233585357666,0.6428571343421936,0.5625,9.999999747378752e-06
0.7458562850952148,2.2723846435546875,0.6967213153839111,0.6204379796981812,0.7272727489471436,3.9551141262054443,0.6428571343421936,0.5625,9.999999747378752e-06
0.7458562850952148,2.255549907684326,0.699999988079071,0.6131386756896973,0.7272727489471436,3.949934720993042,0.6428571343421936,0.5625,9.999999747378752e-06
0.7458562850952148,2.2363295555114746,0.6967213153839111,0.6204379796981812,0.7272727489471436,3.938584804534912,0.6428571343421936,0.5625,9.999999747378752e-06
0.7458562850952148,2.2166800498962402,0.699999988079071,0.6131386756896973,0.7272727489471436,3.9287760257720947,0.6428571343421936,0.5625,9.999999747378752e-06
0.7458562850952148,2.198439598083496,0.699999988079071,0.6131386756896973,0.7272727489471436,3.92073392868042,0.6428571343421936,0.5625,9.999999747378752e-06
0.7458562850952148,2.1825428009033203,0.7155172228813171,0.6058394312858582,0.7272727489471436,3.910745859146118,0.6428571343421936,0.5625,9.999999747378752e-06
0.7458562850952148,2.1644105911254883,0.7179487347602844,0.6131386756896973,0.7272727489471436,3.8998825550079346,0.6428571343421936,0.5625,9.999999747378752e-06
0.7458562850952148,2.1506118774414062,0.7345132827758789,0.6058394312858582,0.7272727489471436,3.8878748416900635,0.6428571343421936,0.5625,9.999999747378752e-06
0.7458562850952148,2.130606174468994,0.7190082669258118,0.6350364685058594,0.7272727489471436,3.8720850944519043,0.6428571343421936,0.5625,9.999999747378752e-06
0.7458562850952148,2.11873722076416,0.699999988079071,0.6642335653305054,0.7272727489471436,3.8588850498199463,0.6428571343421936,0.5625,9.999999747378752e-06
0.7458562850952148,2.100883722305298,0.7235772609710693,0.6496350169181824,0.7272727489471436,3.8546626567840576,0.6428571343421936,0.5625,9.999999747378752e-06
0.7458562850952148,2.079238176345825,0.7295082211494446,0.6496350169181824,0.7272727489471436,3.842517852783203,0.6428571343421936,0.5625,9.999999747378752e-06
0.7458562850952148,2.06923770904541,0.7372881174087524,0.6350364685058594,0.7272727489471436,3.838958263397217,0.6428571343421936,0.5625,9.999999747378752e-06
0.7493112683296204,2.0483813285827637,0.7416666746139526,0.6496350169181824,0.7272727489471436,3.828986644744873,0.6428571343421936,0.5625,9.999999747378752e-06
0.7493112683296204,2.0335793495178223,0.7377049326896667,0.6569343209266663,0.7272727489471436,3.817695379257202,0.6428571343421936,0.5625,9.999999747378752e-06
0.7493112683296204,2.015721559524536,0.756302535533905,0.6569343209266663,0.7272727489471436,3.8111252784729004,0.6428571343421936,0.5625,9.999999747378752e-06
0.7493112683296204,2.0026118755340576,0.752136766910553,0.6423357725143433,0.7272727489471436,3.8033885955810547,0.6428571343421936,0.5625,9.999999747378752e-06
0.7493112683296204,1.9878333806991577,0.7586206793785095,0.6423357725143433,0.7272727489471436,3.793226718902588,0.6428571343421936,0.5625,9.999999747378752e-06
0.7493112683296204,1.9755738973617554,0.7520661354064941,0.6642335653305054,0.7272727489471436,3.783355712890625,0.6428571343421936,0.5625,9.999999747378752e-06
0.7493112683296204,1.9565564393997192,0.7647058963775635,0.6642335653305054,0.7272727489471436,3.779607057571411,0.6428571343421936,0.5625,9.999999747378752e-06
0.7493112683296204,1.9457474946975708,0.7647058963775635,0.6642335653305054,0.7272727489471436,3.7676379680633545,0.6428571343421936,0.5625,9.999999747378752e-06
0.7493112683296204,1.930476188659668,0.7666666507720947,0.6715328693389893,0.7272727489471436,3.759418487548828,0.6428571343421936,0.5625,9.999999747378752e-06
0.7493112683296204,1.9210398197174072,0.7540983557701111,0.6715328693389893,0.7272727489471436,3.742804765701294,0.6428571343421936,0.5625,9.999999747378752e-06
0.7493112683296204,1.9008426666259766,0.7704917788505554,0.6861313581466675,0.7272727489471436,3.739522695541382,0.6428571343421936,0.5625,9.999999747378752e-06
0.7493112683296204,1.888813853263855,0.7731092572212219,0.6715328693389893,0.7272727489471436,3.7279534339904785,0.6428571343421936,0.5625,9.999999747378752e-06
0.7493112683296204,1.8718782663345337,0.7731092572212219,0.6715328693389893,0.7272727489471436,3.7206852436065674,0.6428571343421936,0.5625,9.999999747378752e-06
0.7493112683296204,1.860395908355713,0.7731092572212219,0.6715328693389893,0.7272727489471436,3.7113864421844482,0.6428571343421936,0.5625,9.999999747378752e-06
0.7493112683296204,1.8437511920928955,0.7768595218658447,0.6861313581466675,0.7272727489471436,3.697474241256714,0.6428571343421936,0.5625,9.999999747378752e-06
0.7493112683296204,1.8326072692871094,0.7768595218658447,0.6861313581466675,0.7272727489471436,3.6897995471954346,0.6428571343421936,0.5625,9.999999747378752e-06
0.7493112683296204,1.8186670541763306,0.7768595218658447,0.6861313581466675,0.7272727489471436,3.683044910430908,0.6428571343421936,0.5625,9.999999747378752e-06
0.7493112683296204,1.8088732957839966,0.772357702255249,0.6934306621551514,0.7272727489471436,3.6726977825164795,0.6428571343421936,0.5625,9.999999747378752e-06
0.7493112683296204,1.792186975479126,0.7833333611488342,0.6861313581466675,0.7272727489471436,3.6683239936828613,0.6428571343421936,0.5625,9.999999747378752e-06
0.7493112683296204,1.7869846820831299,0.7899159789085388,0.6861313581466675,0.7272727489471436,3.663374423980713,0.6428571343421936,0.5625,9.999999747378752e-06
0.7493112683296204,1.7739819288253784,0.7833333611488342,0.6861313581466675,0.7272727489471436,3.650846242904663,0.6428571343421936,0.5625,9.999999747378752e-06
0.7493112683296204,1.7576051950454712,0.7804877758026123,0.7007299065589905,0.7272727489471436,3.6443722248077393,0.6428571343421936,0.5625,9.999999747378752e-06
0.7493112683296204,1.7463136911392212,0.7851239442825317,0.6934306621551514,0.7272727489471436,3.639192581176758,0.6428571343421936,0.5625,9.999999747378752e-06
0.7493112683296204,1.7321064472198486,0.7916666865348816,0.6934306621551514,0.7272727489471436,3.632456064224243,0.6428571343421936,0.5625,9.999999747378752e-06
0.7493112683296204,1.7186161279678345,0.7916666865348816,0.6934306621551514,0.7272727489471436,3.6224653720855713,0.6428571343421936,0.5625,9.999999747378752e-06
0.7493112683296204,1.7101974487304688,0.7822580933570862,0.7080292105674744,0.7272727489471436,3.6128602027893066,0.6428571343421936,0.5625,9.999999747378752e-06
0.7493112683296204,1.6987472772598267,0.7857142686843872,0.7226277589797974,0.7272727489471436,3.606348752975464,0.6428571343421936,0.5625,9.999999747378752e-06
0.7493112683296204,1.6875640153884888,0.7919999957084656,0.7226277589797974,0.7272727489471436,3.6009137630462646,0.6428571343421936,0.5625,9.999999747378752e-06
0.7493112683296204,1.6743814945220947,0.7886179089546204,0.7080292105674744,0.7272727489471436,3.597423791885376,0.6428571343421936,0.5625,9.999999747378752e-06
0.7493112683296204,1.6676801443099976,0.7950819730758667,0.7080292105674744,0.7272727489471436,3.589292049407959,0.6428571343421936,0.5625,9.999999747378752e-06
0.7493112683296204,1.655466079711914,0.7983193397521973,0.6934306621551514,0.7272727489471436,3.585393190383911,0.6428571343421936,0.5625,9.999999747378752e-06
0.7493112683296204,1.6458007097244263,0.7933884263038635,0.7007299065589905,0.7272727489471436,3.5752015113830566,0.6428571343421936,0.5625,9.999999747378752e-06
0.7493112683296204,1.634171485900879,0.805084764957428,0.6934306621551514,0.7272727489471436,3.5697038173675537,0.6428571343421936,0.5625,9.999999747378752e-06
0.7493112683296204,1.6238161325454712,0.7967479825019836,0.7153284549713135,0.7272727489471436,3.5578930377960205,0.6428571343421936,0.5625,9.999999747378752e-06
0.7493112683296204,1.613248586654663,0.7919999957084656,0.7226277589797974,0.7272727489471436,3.551959991455078,0.6428571343421936,0.5625,9.999999747378752e-06
0.7493112683296204,1.6007945537567139,0.8032786846160889,0.7153284549713135,0.7272727489471436,3.5458972454071045,0.6428571343421936,0.5625,9.999999747378752e-06
0.7493112683296204,1.5901870727539062,0.8032786846160889,0.7153284549713135,0.7272727489471436,3.5406014919281006,0.6428571343421936,0.5625,9.999999747378752e-06
0.7493112683296204,1.5815894603729248,0.8032786846160889,0.7153284549713135,0.7272727489471436,3.534613847732544,0.6428571343421936,0.5625,9.999999747378752e-06
0.7493112683296204,1.5711534023284912,0.8032786846160889,0.7153284549713135,0.7272727489471436,3.529496908187866,0.6428571343421936,0.5625,9.999999747378752e-06
0.7493112683296204,1.563025712966919,0.8080000281333923,0.7372262477874756,0.7272727489471436,3.5218887329101562,0.6428571343421936,0.5625,9.999999747378752e-06
0.7493112683296204,1.551265835762024,0.8080000281333923,0.7372262477874756,0.7272727489471436,3.5145413875579834,0.6428571343421936,0.5625,9.999999747378752e-06
0.7493112683296204,1.5434041023254395,0.8095238208770752,0.7445255517959595,0.7272727489471436,3.5052871704101562,0.6428571343421936,0.5625,9.999999747378752e-06
0.7493112683296204,1.532128930091858,0.8095238208770752,0.7445255517959595,0.7272727489471436,3.4997501373291016,0.6428571343421936,0.5625,9.999999747378752e-06
0.7493112683296204,1.5197447538375854,0.8031495809555054,0.7445255517959595,0.7272727489471436,3.494001626968384,0.6428571343421936,0.5625,9.999999747378752e-06
0.7493112683296204,1.5120458602905273,0.8031495809555054,0.7445255517959595,0.7272727489471436,3.4857232570648193,0.6428571343421936,0.5625,9.999999747378752e-06
0.7493112683296204,1.5021278858184814,0.8159999847412109,0.7445255517959595,0.7272727489471436,3.4854576587677,0.6428571343421936,0.5625,9.999999747378752e-06
0.7493112683296204,1.4913794994354248,0.8095238208770752,0.7445255517959595,0.7272727489471436,3.479032278060913,0.6000000238418579,0.5625,9.999999747378752e-06
0.7493112683296204,1.4826990365982056,0.8031495809555054,0.7445255517959595,0.7272727489471436,3.474447250366211,0.6000000238418579,0.5625,9.999999747378752e-06
0.7493112683296204,1.4725341796875,0.8095238208770752,0.7445255517959595,0.7272727489471436,3.4686319828033447,0.6428571343421936,0.5625,9.999999747378752e-06
0.7493112683296204,1.465030550956726,0.8095238208770752,0.7445255517959595,0.7272727489471436,3.4621009826660156,0.6428571343421936,0.5625,9.999999747378752e-06
0.7493112683296204,1.4536762237548828,0.8095238208770752,0.7445255517959595,0.7272727489471436,3.4560961723327637,0.6428571343421936,0.5625,9.999999747378752e-06
0.7493112683296204,1.4441503286361694,0.8159999847412109,0.7445255517959595,0.7272727489471436,3.453197717666626,0.6428571343421936,0.5625,9.999999747378752e-06
0.7493112683296204,1.4421732425689697,0.8046875,0.7518247961997986,0.7272727489471436,3.4458882808685303,0.6000000238418579,0.5625,9.999999747378752e-06
0.7493112683296204,1.4330558776855469,0.8159999847412109,0.7445255517959595,0.7272727489471436,3.442166805267334,0.6428571343421936,0.5625,9.999999747378752e-06
0.7493112683296204,1.4181673526763916,0.8225806355476379,0.7445255517959595,0.7272727489471436,3.434499979019165,0.6000000238418579,0.5625,9.999999747378752e-06
0.7493112683296204,1.408096432685852,0.8159999847412109,0.7445255517959595,0.7272727489471436,3.4280948638916016,0.6000000238418579,0.5625,9.999999747378752e-06
0.7493112683296204,1.4007080793380737,0.8159999847412109,0.7445255517959595,0.7272727489471436,3.4250595569610596,0.6000000238418579,0.5625,9.999999747378752e-06
0.7493112683296204,1.3899741172790527,0.817460298538208,0.7518247961997986,0.7272727489471436,3.4198639392852783,0.6000000238418579,0.5625,9.999999747378752e-06
0.7493112683296204,1.3829448223114014,0.817460298538208,0.7518247961997986,0.7272727489471436,3.4148356914520264,0.6000000238418579,0.5625,9.999999747378752e-06
0.7493112683296204,1.3755401372909546,0.8292682766914368,0.7445255517959595,0.7272727489471436,3.411099672317505,0.6000000238418579,0.5625,9.999999747378752e-06
0.7493112683296204,1.3715137243270874,0.8240000009536743,0.7518247961997986,0.7272727489471436,3.4036662578582764,0.6000000238418579,0.5625,9.999999747378752e-06
0.7493112683296204,1.3580098152160645,0.8306451439857483,0.7518247961997986,0.7272727489471436,3.399512767791748,0.6000000238418579,0.5625,9.999999747378752e-06
0.7493112683296204,1.3498106002807617,0.8306451439857483,0.7518247961997986,0.7272727489471436,3.3955986499786377,0.6000000238418579,0.5625,9.999999747378752e-06
0.7493112683296204,1.341793417930603,0.8306451439857483,0.7518247961997986,0.7272727489471436,3.3908517360687256,0.6000000238418579,0.5625,9.999999747378752e-06
0.7527471780776978,1.3332836627960205,0.8320000171661377,0.7591241002082825,0.7272727489471436,3.38611102104187,0.6000000238418579,0.5625,9.999999747378752e-06
0.7527471780776978,1.32743239402771,0.8188976645469666,0.7591241002082825,0.7272727489471436,3.3823492527008057,0.6000000238418579,0.5625,9.999999747378752e-06
0.7527471780776978,1.3169853687286377,0.8203125,0.7664233446121216,0.7272727489471436,3.3772804737091064,0.6000000238418579,0.5625,9.999999747378752e-06
0.7527471780776978,1.3089916706085205,0.8267716765403748,0.7664233446121216,0.7272727489471436,3.373842716217041,0.6000000238418579,0.5625,9.999999747378752e-06
0.7527471780776978,1.3042410612106323,0.8333333134651184,0.7664233446121216,0.7272727489471436,3.3707635402679443,0.6000000238418579,0.5625,9.999999747378752e-06
0.7527471780776978,1.2949612140655518,0.8373983502388,0.7518247961997986,0.7272727489471436,3.3669331073760986,0.6000000238418579,0.5625,9.999999747378752e-06
0.7527471780776978,1.2873554229736328,0.8387096524238586,0.7591241002082825,0.7272727489471436,3.3604748249053955,0.6000000238418579,0.5625,9.999999747378752e-06
0.7527471780776978,1.2781599760055542,0.8333333134651184,0.7664233446121216,0.7272727489471436,3.3565118312835693,0.625,0.625,9.999999747378752e-06
0.7527471780776978,1.2700875997543335,0.828125,0.7737226486206055,0.7272727489471436,3.3513600826263428,0.6000000238418579,0.5625,9.999999747378752e-06
0.7527471780776978,1.262475609779358,0.834645688533783,0.7737226486206055,0.7272727489471436,3.3476500511169434,0.625,0.625,9.999999747378752e-06
0.7527471780776978,1.255516529083252,0.828125,0.7737226486206055,0.7272727489471436,3.344297409057617,0.625,0.625,9.999999747378752e-06
0.7527471780776978,1.2459843158721924,0.834645688533783,0.7737226486206055,0.7272727489471436,3.337306499481201,0.6000000238418579,0.5625,9.999999747378752e-06
0.7527471780776978,1.240759253501892,0.8467742204666138,0.7664233446121216,0.7272727489471436,3.333193302154541,0.625,0.625,9.999999747378752e-06
0.7527471780776978,1.23200261592865,0.841269850730896,0.7737226486206055,0.7272727489471436,3.332185745239258,0.625,0.625,9.999999747378752e-06
0.7527471780776978,1.226054310798645,0.834645688533783,0.7737226486206055,0.7272727489471436,3.329535722732544,0.625,0.625,9.999999747378752e-06
0.7527471780776978,1.2200400829315186,0.834645688533783,0.7737226486206055,0.7272727489471436,3.3240966796875,0.625,0.625,9.999999747378752e-06
0.7527471780776978,1.212272047996521,0.834645688533783,0.7737226486206055,0.7272727489471436,3.3223071098327637,0.625,0.625,9.999999747378752e-06
0.7527471780776978,1.2034657001495361,0.841269850730896,0.7737226486206055,0.7272727489471436,3.3184375762939453,0.625,0.625,9.999999747378752e-06
0.7506848573684692,1.196931004524231,0.8492063283920288,0.7810218930244446,0.7272727489471436,3.31528639793396,0.5882353186607361,0.625,9.999999747378752e-06
0.7527471780776978,1.1921677589416504,0.8425197005271912,0.7810218930244446,0.7272727489471436,3.310145854949951,0.625,0.625,9.999999747378752e-06
0.7506848573684692,1.18256676197052,0.8425197005271912,0.7810218930244446,0.7272727489471436,3.3093314170837402,0.5882353186607361,0.625,9.999999747378752e-06
0.7506848573684692,1.177284836769104,0.8449612259864807,0.7956204414367676,0.7272727489471436,3.308962345123291,0.5882353186607361,0.625,9.999999747378752e-06
0.7506848573684692,1.1718871593475342,0.84375,0.7883211970329285,0.7272727489471436,3.3043675422668457,0.5882353186607361,0.625,9.999999747378752e-06
0.7506848573684692,1.1597493886947632,0.8515625,0.7956204414367676,0.7272727489471436,3.302762746810913,0.5882353186607361,0.625,9.999999747378752e-06
0.7506848573684692,1.1553747653961182,0.8515625,0.7956204414367676,0.7272727489471436,3.2979419231414795,0.5882353186607361,0.625,9.999999747378752e-06
0.7506848573684692,1.1477620601654053,0.8515625,0.7956204414367676,0.7272727489471436,3.2953975200653076,0.5882353186607361,0.625,9.999999747378752e-06
0.7506848573684692,1.1406054496765137,0.8449612259864807,0.7956204414367676,0.7272727489471436,3.2916572093963623,0.5882353186607361,0.625,9.999999747378752e-06
0.7506848573684692,1.1327052116394043,0.8515625,0.7956204414367676,0.7272727489471436,3.2849268913269043,0.5882353186607361,0.625,9.999999747378752e-06
0.7506848573684692,1.1252607107162476,0.8515625,0.7956204414367676,0.7272727489471436,3.2814371585845947,0.5882353186607361,0.625,9.999999747378752e-06
0.7506848573684692,1.12055242061615,0.8582677245140076,0.7956204414367676,0.7272727489471436,3.2771832942962646,0.5882353186607361,0.625,9.999999747378752e-06
0.7506848573684692,1.1132307052612305,0.8582677245140076,0.7956204414367676,0.7272727489471436,3.277390718460083,0.5882353186607361,0.625,9.999999747378752e-06
0.7506848573684692,1.1054264307022095,0.8650793433189392,0.7956204414367676,0.7272727489471436,3.2729885578155518,0.5882353186607361,0.625,9.999999747378752e-06
0.7506848573684692,1.0997904539108276,0.871999979019165,0.7956204414367676,0.7272727489471436,3.2712740898132324,0.5882353186607361,0.625,9.999999747378752e-06
0.7506848573684692,1.0928844213485718,0.871999979019165,0.7956204414367676,0.7272727489471436,3.267005205154419,0.5882353186607361,0.625,9.999999747378752e-06
0.7506848573684692,1.0854369401931763,0.8650793433189392,0.7956204414367676,0.7272727489471436,3.267896890640259,0.5882353186607361,0.625,9.999999747378752e-06
0.7506848573684692,1.0812127590179443,0.8582677245140076,0.7956204414367676,0.7272727489471436,3.2688212394714355,0.6111111044883728,0.6875,9.999999747378752e-06
0.7506848573684692,1.0748209953308105,0.8650793433189392,0.7956204414367676,0.7272727489471436,3.262543201446533,0.6111111044883728,0.6875,9.999999747378752e-06
0.7506848573684692,1.0665578842163086,0.871999979019165,0.7956204414367676,0.7272727489471436,3.2595438957214355,0.5882353186607361,0.625,9.999999747378752e-06
0.7506848573684692,1.0602502822875977,0.871999979019165,0.7956204414367676,0.7272727489471436,3.256758451461792,0.5882353186607361,0.625,9.999999747378752e-06
0.7506848573684692,1.0527437925338745,0.8650793433189392,0.7956204414367676,0.7272727489471436,3.2558929920196533,0.6111111044883728,0.6875,9.999999747378752e-06
0.7506848573684692,1.0517810583114624,0.871999979019165,0.7956204414367676,0.7272727489471436,3.2516040802001953,0.6111111044883728,0.6875,9.999999747378752e-06
0.7506848573684692,1.0413882732391357,0.871999979019165,0.7956204414367676,0.7272727489471436,3.25519061088562,0.6111111044883728,0.6875,9.999999747378752e-06
0.7506848573684692,1.0342830419540405,0.8650793433189392,0.7956204414367676,0.7272727489471436,3.24992299079895,0.6111111044883728,0.6875,9.999999747378752e-06
0.7506848573684692,1.0278064012527466,0.8790322542190552,0.7956204414367676,0.7272727489471436,3.2465126514434814,0.6111111044883728,0.6875,9.999999747378752e-06
0.7506848573684692,1.0282315015792847,0.8861788511276245,0.7956204414367676,0.7272727489471436,3.24141526222229,0.6111111044883728,0.6875,9.999999747378752e-06
0.7506848573684692,1.0148952007293701,0.8790322542190552,0.7956204414367676,0.7272727489471436,3.245880603790283,0.6111111044883728,0.6875,9.999999747378752e-06
0.7506848573684692,1.0102297067642212,0.859375,0.8029196858406067,0.7272727489471436,3.249462127685547,0.6111111044883728,0.6875,9.999999747378752e-06
0.7506848573684692,1.0049718618392944,0.859375,0.8029196858406067,0.7272727489471436,3.2495205402374268,0.6111111044883728,0.6875,9.999999747378752e-06
0.7506848573684692,0.9969788193702698,0.8661417365074158,0.8029196858406067,0.7272727489471436,3.241115093231201,0.6111111044883728,0.6875,9.999999747378752e-06
0.7506848573684692,0.9896107912063599,0.8790322542190552,0.7956204414367676,0.7272727489471436,3.2392160892486572,0.6111111044883728,0.6875,9.999999747378752e-06
0.7506848573684692,0.9836704134941101,0.8790322542190552,0.7956204414367676,0.7272727489471436,3.235776901245117,0.6111111044883728,0.6875,9.999999747378752e-06
0.7506848573684692,0.9774002432823181,0.8861788511276245,0.7956204414367676,0.7272727489471436,3.2371652126312256,0.6111111044883728,0.6875,9.999999747378752e-06
0.7506848573684692,0.971170961856842,0.8861788511276245,0.7956204414367676,0.7272727489471436,3.2367825508117676,0.6111111044883728,0.6875,9.999999747378752e-06
0.7506848573684692,0.9647221565246582,0.8861788511276245,0.7956204414367676,0.7272727489471436,3.2309372425079346,0.6111111044883728,0.6875,9.999999747378752e-06
0.7506848573684692,0.9600095152854919,0.8861788511276245,0.7956204414367676,0.7272727489471436,3.2288525104522705,0.6111111044883728,0.6875,9.999999747378752e-06
0.7506848573684692,0.9560213088989258,0.8870967626571655,0.8029196858406067,0.7272727489471436,3.2330799102783203,0.6111111044883728,0.6875,9.999999747378752e-06
0.7506848573684692,0.9478268027305603,0.8870967626571655,0.8029196858406067,0.7272727489471436,3.2255990505218506,0.6111111044883728,0.6875,9.999999747378752e-06
0.7506848573684692,0.9421396851539612,0.8861788511276245,0.7956204414367676,0.7272727489471436,3.2265896797180176,0.6111111044883728,0.6875,9.999999747378752e-06
0.7506848573684692,0.9354913234710693,0.8870967626571655,0.8029196858406067,0.7272727489471436,3.226219654083252,0.6111111044883728,0.6875,9.999999747378752e-06
0.7506848573684692,0.9301081299781799,0.8861788511276245,0.7956204414367676,0.7272727489471436,3.2246627807617188,0.6111111044883728,0.6875,9.999999747378752e-06
0.7506848573684692,0.9220117330551147,0.8880000114440918,0.8102189898490906,0.7272727489471436,3.2325596809387207,0.6111111044883728,0.6875,9.999999747378752e-06
0.7506848573684692,0.9192065000534058,0.8671875,0.8102189898490906,0.7272727489471436,3.2352068424224854,0.6111111044883728,0.6875,9.999999747378752e-06
0.7506848573684692,0.9140140414237976,0.8809523582458496,0.8102189898490906,0.7272727489471436,3.228221893310547,0.6111111044883728,0.6875,9.999999747378752e-06
0.7506848573684692,0.9092644453048706,0.8809523582458496,0.8102189898490906,0.7272727489471436,3.229097604751587,0.6111111044883728,0.6875,9.999999747378752e-06
0.7506848573684692,0.9006422162055969,0.8870967626571655,0.8029196858406067,0.7272727489471436,3.217900037765503,0.6111111044883728,0.6875,9.999999747378752e-06
0.7506848573684692,0.8980873227119446,0.8861788511276245,0.7956204414367676,0.7272727489471436,3.213732957839966,0.6111111044883728,0.6875,9.999999747378752e-06
0.7506848573684692,0.8889133930206299,0.8870967626571655,0.8029196858406067,0.7272727489471436,3.2160513401031494,0.6111111044883728,0.6875,9.999999747378752e-06
0.7506848573684692,0.8836997747421265,0.8880000114440918,0.8102189898490906,0.7272727489471436,3.2203369140625,0.6111111044883728,0.6875,9.999999747378752e-06
0.7506848573684692,0.8783532977104187,0.8880000114440918,0.8102189898490906,0.7272727489471436,3.217118501663208,0.6111111044883728,0.6875,9.999999747378752e-06
0.7506848573684692,0.8718788623809814,0.8888888955116272,0.8175182342529297,0.7272727489471436,3.2194535732269287,0.6111111044883728,0.6875,9.999999747378752e-06
0.7506848573684692,0.8675968050956726,0.8818897604942322,0.8175182342529297,0.7272727489471436,3.222440719604492,0.6111111044883728,0.6875,9.999999747378752e-06
0.7506848573684692,0.867132842540741,0.8880000114440918,0.8102189898490906,0.7272727489471436,3.2134175300598145,0.6111111044883728,0.6875,9.999999747378752e-06
0.7506848573684692,0.8555891513824463,0.8818897604942322,0.8175182342529297,0.7272727489471436,3.219593048095703,0.6111111044883728,0.6875,9.999999747378752e-06
0.7506848573684692,0.851164698600769,0.8888888955116272,0.8175182342529297,0.7272727489471436,3.2171101570129395,0.6111111044883728,0.6875,9.999999747378752e-06
0.7506848573684692,0.8446837067604065,0.8818897604942322,0.8175182342529297,0.7272727489471436,3.213392496109009,0.6111111044883728,0.6875,9.999999747378752e-06
0.7506848573684692,0.8401488661766052,0.8818897604942322,0.8175182342529297,0.7272727489471436,3.21327543258667,0.6111111044883728,0.6875,9.999999747378752e-06
0.7506848573684692,0.8360084891319275,0.8888888955116272,0.8175182342529297,0.7272727489471436,3.2109110355377197,0.6111111044883728,0.6875,9.999999747378752e-06
0.7506848573684692,0.8292474150657654,0.8888888955116272,0.8175182342529297,0.7272727489471436,3.2076714038848877,0.6111111044883728,0.6875,9.999999747378752e-06
0.7506848573684692,0.822445809841156,0.8888888955116272,0.8175182342529297,0.7272727489471436,3.213013172149658,0.6111111044883728,0.6875,9.999999747378752e-06
0.7506848573684692,0.82036954164505,0.8837209343910217,0.8321167826652527,0.7272727489471436,3.2177822589874268,0.6111111044883728,0.6875,9.999999747378752e-06
0.7506848573684692,0.8114938139915466,0.8837209343910217,0.8321167826652527,0.7272727489471436,3.216158390045166,0.6111111044883728,0.6875,9.999999747378752e-06
0.7506848573684692,0.8062490224838257,0.8837209343910217,0.8321167826652527,0.7272727489471436,3.214982509613037,0.6111111044883728,0.6875,9.999999747378752e-06
0.7506848573684692,0.8005275726318359,0.8818897604942322,0.8175182342529297,0.7272727489471436,3.2088558673858643,0.6111111044883728,0.6875,9.999999747378752e-06
0.7506848573684692,0.7948347926139832,0.8846153616905212,0.8394160866737366,0.7272727489471436,3.2132632732391357,0.6111111044883728,0.6875,9.999999747378752e-06
0.7506848573684692,0.7893863916397095,0.8914728760719299,0.8394160866737366,0.7272727489471436,3.2096121311187744,0.6111111044883728,0.6875,9.999999747378752e-06
0.7506848573684692,0.7836597561836243,0.8846153616905212,0.8394160866737366,0.7272727489471436,3.2107303142547607,0.6111111044883728,0.6875,9.999999747378752e-06
0.7506848573684692,0.7779142260551453,0.8846153616905212,0.8394160866737366,0.7272727489471436,3.210527181625366,0.6111111044883728,0.6875,9.999999747378752e-06
0.7506848573684692,0.7733272910118103,0.8846153616905212,0.8394160866737366,0.7272727489471436,3.2107670307159424,0.6111111044883728,0.6875,9.999999747378752e-06
0.7506848573684692,0.7772393822669983,0.8778625726699829,0.8394160866737366,0.7272727489471436,3.219325542449951,0.6111111044883728,0.6875,9.999999747378752e-06
0.7506848573684692,0.7642646431922913,0.8778625726699829,0.8394160866737366,0.7272727489471436,3.215174436569214,0.6111111044883728,0.6875,9.999999747378752e-06
0.7506848573684692,0.7581620812416077,0.8846153616905212,0.8394160866737366,0.7272727489471436,3.2103078365325928,0.6111111044883728,0.6875,9.999999747378752e-06
0.7506848573684692,0.7522960305213928,0.8846153616905212,0.8394160866737366,0.7272727489471436,3.209789514541626,0.6111111044883728,0.6875,9.999999747378752e-06
0.7506848573684692,0.7472070455551147,0.8846153616905212,0.8394160866737366,0.7272727489471436,3.2055935859680176,0.6111111044883728,0.6875,9.999999747378752e-06
0.7506848573684692,0.7426756024360657,0.8846153616905212,0.8394160866737366,0.7272727489471436,3.211761713027954,0.6111111044883728,0.6875,9.999999747378752e-06
0.7506848573684692,0.7416442036628723,0.8914728760719299,0.8394160866737366,0.7272727489471436,3.206901788711548,0.6111111044883728,0.6875,9.999999747378752e-06
0.7506848573684692,0.7308078408241272,0.8846153616905212,0.8394160866737366,0.7272727489471436,3.2131187915802,0.6111111044883728,0.6875,9.999999747378752e-06
0.7506848573684692,0.7281458377838135,0.8846153616905212,0.8394160866737366,0.7272727489471436,3.212261199951172,0.6111111044883728,0.6875,9.999999747378752e-06
0.7506848573684692,0.7233605980873108,0.8846153616905212,0.8394160866737366,0.7272727489471436,3.212371349334717,0.6111111044883728,0.6875,9.999999747378752e-06
0.7506848573684692,0.7172963619232178,0.8846153616905212,0.8394160866737366,0.7272727489471436,3.2068495750427246,0.6111111044883728,0.6875,9.999999747378752e-06
0.7506848573684692,0.7158071994781494,0.890625,0.8321167826652527,0.7272727489471436,3.204697847366333,0.6111111044883728,0.6875,9.999999747378752e-06
0.7506848573684692,0.7083538770675659,0.890625,0.8321167826652527,0.7272727489471436,3.207245349884033,0.6111111044883728,0.6875,9.999999747378752e-06
0.7506848573684692,0.7055922150611877,0.8846153616905212,0.8394160866737366,0.7272727489471436,3.212806224822998,0.6111111044883728,0.6875,9.999999747378752e-06
0.7506848573684692,0.6990281939506531,0.8846153616905212,0.8394160866737366,0.7272727489471436,3.2080063819885254,0.6111111044883728,0.6875,9.999999747378752e-06
0.7506848573684692,0.6953948736190796,0.8846153616905212,0.8394160866737366,0.7272727489471436,3.2078306674957275,0.6111111044883728,0.6875,9.999999747378752e-06
