F1Score,loss,precision,recall,val_F1Score,val_loss,val_precision,val_recall,learning_rate
0.740157425403595,12.140494346618652,0.5896226167678833,0.8741258978843689,0.6399999856948853,11.167032241821289,0.4615384638309479,0.75,9.999999747378752e-06
0.740157425403595,11.107592582702637,0.5911329984664917,0.8391608595848083,0.6399999856948853,10.277888298034668,0.4166666567325592,0.625,9.999999747378752e-06
0.7354496717453003,10.255136489868164,0.592783510684967,0.8041958212852478,0.6399999856948853,9.605367660522461,0.3636363744735718,0.5,9.999999747378752e-06
0.737400472164154,9.437665939331055,0.5945945978164673,0.7692307829856873,0.6399999856948853,9.162585258483887,0.3636363744735718,0.5,9.999999747378752e-06
0.7359999418258667,8.922165870666504,0.5780346989631653,0.6993007063865662,0.6399999856948853,8.707965850830078,0.3636363744735718,0.5,9.999999747378752e-06
0.7359999418258667,8.481424331665039,0.5687500238418579,0.6363636255264282,0.6399999856948853,8.380329132080078,0.4000000059604645,0.5,9.999999747378752e-06
0.737967848777771,8.200420379638672,0.5620915293693542,0.6013985872268677,0.5833332538604736,8.153541564941406,0.4000000059604645,0.5,9.999999747378752e-06
0.737967848777771,7.970063209533691,0.5694444179534912,0.5734265446662903,0.6086955666542053,8.024152755737305,0.3333333432674408,0.375,9.999999747378752e-06
0.7311826944351196,7.841069221496582,0.5563910007476807,0.5174825191497803,0.6086955666542053,7.920225143432617,0.3333333432674408,0.375,9.999999747378752e-06
0.7311826944351196,7.725714206695557,0.5572519302368164,0.5104895234107971,0.6086955666542053,7.850135326385498,0.3333333432674408,0.375,9.999999747378752e-06
0.7277626991271973,7.6470513343811035,0.5546875,0.4965035021305084,0.6086955666542053,7.783585548400879,0.3333333432674408,0.375,9.999999747378752e-06
0.7243242263793945,7.581246852874756,0.5483871102333069,0.4755244851112366,0.6086955666542053,7.712995529174805,0.3333333432674408,0.375,9.999999747378752e-06
0.7243242263793945,7.507096290588379,0.5409836173057556,0.4615384638309479,0.6086955666542053,7.656851291656494,0.3333333432674408,0.375,9.999999747378752e-06
0.7208671569824219,7.444010257720947,0.5409836173057556,0.4615384638309479,0.6086955666542053,7.613385200500488,0.3333333432674408,0.375,9.999999747378752e-06
0.7208671569824219,7.381817817687988,0.5454545617103577,0.4615384638309479,0.6086955666542053,7.564673900604248,0.3333333432674408,0.375,9.999999747378752e-06
0.7208671569824219,7.322391033172607,0.5416666865348816,0.4545454680919647,0.6086955666542053,7.515058517456055,0.3333333432674408,0.375,9.999999747378752e-06
0.7228260636329651,7.270442008972168,0.5462185144424438,0.4545454680919647,0.6086955666542053,7.467336177825928,0.3333333432674408,0.375,9.999999747378752e-06
0.7228260636329651,7.205793380737305,0.5423728823661804,0.4475524425506592,0.6086955666542053,7.424594879150391,0.3333333432674408,0.375,9.999999747378752e-06
0.7228260636329651,7.146661281585693,0.5423728823661804,0.4475524425506592,0.6086955666542053,7.3905863761901855,0.3333333432674408,0.375,9.999999747378752e-06
0.7228260636329651,7.093972682952881,0.5423728823661804,0.4475524425506592,0.6086955666542053,7.350192070007324,0.3333333432674408,0.375,9.999999747378752e-06
0.7228260636329651,7.035758972167969,0.5423728823661804,0.4475524425506592,0.6086955666542053,7.329787731170654,0.3333333432674408,0.375,9.999999747378752e-06
0.7228260636329651,6.9772162437438965,0.5462185144424438,0.4545454680919647,0.6086955666542053,7.281409740447998,0.3333333432674408,0.375,9.999999747378752e-06
0.7228260636329651,6.921126365661621,0.5517241358757019,0.4475524425506592,0.6086955666542053,7.239448547363281,0.3333333432674408,0.375,9.999999747378752e-06
0.7228260636329651,6.862848281860352,0.5517241358757019,0.4475524425506592,0.6086955666542053,7.212186336517334,0.3333333432674408,0.375,9.999999747378752e-06
0.7228260636329651,6.814860820770264,0.5517241358757019,0.4475524425506592,0.6086955666542053,7.171021461486816,0.3333333432674408,0.375,9.999999747378752e-06
0.7262871861457825,6.756410598754883,0.5508474707603455,0.4545454680919647,0.6086955666542053,7.153376579284668,0.3333333432674408,0.375,9.999999747378752e-06
0.7297296524047852,6.697556972503662,0.5508474707603455,0.4545454680919647,0.6086955666542053,7.105325222015381,0.3333333432674408,0.375,9.999999747378752e-06
0.7297296524047852,6.640605449676514,0.5555555820465088,0.4545454680919647,0.6086955666542053,7.078141212463379,0.3333333432674408,0.375,9.999999747378752e-06
0.7297296524047852,6.581429481506348,0.5593220591545105,0.4615384638309479,0.6086955666542053,7.041912078857422,0.3333333432674408,0.375,9.999999747378752e-06
0.7297296524047852,6.527737617492676,0.5593220591545105,0.4615384638309479,0.6086955666542053,7.006455898284912,0.3333333432674408,0.375,9.999999747378752e-06
0.7297296524047852,6.473474979400635,0.5593220591545105,0.4615384638309479,0.6086955666542053,6.9768900871276855,0.3333333432674408,0.375,9.999999747378752e-06
0.7297296524047852,6.418479919433594,0.5593220591545105,0.4615384638309479,0.6086955666542053,6.941412925720215,0.375,0.375,9.999999747378752e-06
0.7297296524047852,6.363460063934326,0.5593220591545105,0.4615384638309479,0.6086955666542053,6.901310443878174,0.375,0.375,9.999999747378752e-06
0.7297296524047852,6.310563087463379,0.5593220591545105,0.4615384638309479,0.5833332538604736,6.869819164276123,0.375,0.375,9.999999747378752e-06
0.7297296524047852,6.253633975982666,0.5593220591545105,0.4615384638309479,0.5833332538604736,6.839532375335693,0.375,0.375,9.999999747378752e-06
0.7297296524047852,6.203789710998535,0.5641025900840759,0.4615384638309479,0.5833332538604736,6.807396411895752,0.375,0.375,9.999999747378752e-06
0.7331535220146179,6.151165962219238,0.5641025900840759,0.4615384638309479,0.5833332538604736,6.777778148651123,0.375,0.375,9.999999747378752e-06
0.7331535220146179,6.0921173095703125,0.5641025900840759,0.4615384638309479,0.5833332538604736,6.746782302856445,0.375,0.375,9.999999747378752e-06
0.7365590929985046,6.04676628112793,0.5641025900840759,0.4615384638309479,0.5833332538604736,6.72029972076416,0.375,0.375,9.999999747378752e-06
0.7365590929985046,5.9944634437561035,0.5546218752861023,0.4615384638309479,0.5833332538604736,6.691867351531982,0.375,0.375,9.999999747378752e-06
0.7365590929985046,5.945918560028076,0.5546218752861023,0.4615384638309479,0.5833332538604736,6.658141613006592,0.375,0.375,9.999999747378752e-06
0.7399463057518005,5.884758472442627,0.5593220591545105,0.4615384638309479,0.5833332538604736,6.630234718322754,0.375,0.375,9.999999747378752e-06
0.7365590929985046,5.856549263000488,0.5555555820465088,0.4545454680919647,0.5833332538604736,6.595073223114014,0.375,0.375,9.999999747378752e-06
0.7365590929985046,5.783135890960693,0.5603448152542114,0.4545454680919647,0.5833332538604736,6.570038795471191,0.375,0.375,9.999999747378752e-06
0.7399463057518005,5.737678050994873,0.5508474707603455,0.4545454680919647,0.5833332538604736,6.540107250213623,0.375,0.375,9.999999747378752e-06
0.7399463057518005,5.6997480392456055,0.5508474707603455,0.4545454680919647,0.5833332538604736,6.509587287902832,0.375,0.375,9.999999747378752e-06
0.7399463057518005,5.6429033279418945,0.5508474707603455,0.4545454680919647,0.5833332538604736,6.481631278991699,0.375,0.375,9.999999747378752e-06
0.7399463057518005,5.585285663604736,0.5619834661483765,0.4755244851112366,0.5833332538604736,6.455195903778076,0.375,0.375,9.999999747378752e-06
0.737967848777771,5.536540508270264,0.5619834661483765,0.4755244851112366,0.5833332538604736,6.426590919494629,0.375,0.375,9.999999747378752e-06
0.737967848777771,5.4916582107543945,0.5619834661483765,0.4755244851112366,0.5833332538604736,6.394280433654785,0.375,0.375,9.999999747378752e-06
0.737967848777771,5.439503192901611,0.5619834661483765,0.4755244851112366,0.5833332538604736,6.368594169616699,0.375,0.375,9.999999747378752e-06
0.7399463057518005,5.397923469543457,0.5619834661483765,0.4755244851112366,0.5833332538604736,6.340651512145996,0.375,0.375,9.999999747378752e-06
0.7433154582977295,5.348855495452881,0.5583333373069763,0.46853145956993103,0.5833332538604736,6.314743518829346,0.375,0.375,9.999999747378752e-06
0.7413333058357239,5.299681663513184,0.5583333373069763,0.46853145956993103,0.5833332538604736,6.286836624145508,0.375,0.375,9.999999747378752e-06
0.7413333058357239,5.253669261932373,0.5655737519264221,0.4825174808502197,0.5833332538604736,6.259983539581299,0.375,0.375,9.999999747378752e-06
0.7413333058357239,5.210851669311523,0.5609756112098694,0.4825174808502197,0.5833332538604736,6.2309136390686035,0.375,0.375,9.999999747378752e-06
0.7393616437911987,5.161669731140137,0.5702479481697083,0.4825174808502197,0.5833332538604736,6.205374717712402,0.375,0.375,9.999999747378752e-06
0.7393616437911987,5.117138385772705,0.5691056847572327,0.4895104765892029,0.5833332538604736,6.183096408843994,0.375,0.375,9.999999747378752e-06
0.7393616437911987,5.073432445526123,0.5785123705863953,0.4895104765892029,0.5833332538604736,6.15622091293335,0.375,0.375,9.999999747378752e-06
0.7393616437911987,5.027998447418213,0.574999988079071,0.4825174808502197,0.5833332538604736,6.12754487991333,0.375,0.375,9.999999747378752e-06
0.7393616437911987,4.981461524963379,0.5737704634666443,0.4895104765892029,0.5833332538604736,6.104442596435547,0.375,0.375,9.999999747378752e-06
0.7393616437911987,4.9452033042907715,0.5691056847572327,0.4895104765892029,0.5833332538604736,6.081357955932617,0.375,0.375,9.999999747378752e-06
0.7393616437911987,4.899184703826904,0.5725806355476379,0.4965035021305084,0.5833332538604736,6.052725791931152,0.375,0.375,9.999999747378752e-06
0.7393616437911987,4.869223594665527,0.5932203531265259,0.4895104765892029,0.5833332538604736,6.029933452606201,0.375,0.375,9.999999747378752e-06
0.7393616437911987,4.814012050628662,0.5882353186607361,0.4895104765892029,0.5833332538604736,5.997669696807861,0.375,0.375,9.999999747378752e-06
0.7393616437911987,4.7743144035339355,0.5882353186607361,0.4895104765892029,0.5833332538604736,5.974776268005371,0.375,0.375,9.999999747378752e-06
0.7393616437911987,4.731289386749268,0.5901639461517334,0.503496527671814,0.5833332538604736,5.951624870300293,0.375,0.375,9.999999747378752e-06
0.7393616437911987,4.698701858520508,0.5806451439857483,0.503496527671814,0.5833332538604736,5.928440570831299,0.375,0.375,9.999999747378752e-06
0.7393616437911987,4.64987325668335,0.5806451439857483,0.503496527671814,0.5833332538604736,5.903146266937256,0.375,0.375,9.999999747378752e-06
0.7393616437911987,4.609879493713379,0.5901639461517334,0.503496527671814,0.5833332538604736,5.880683422088623,0.375,0.375,9.999999747378752e-06
0.7393616437911987,4.568758487701416,0.5901639461517334,0.503496527671814,0.5833332538604736,5.858091354370117,0.375,0.375,9.999999747378752e-06
0.7393616437911987,4.5308637619018555,0.5853658318519592,0.503496527671814,0.5833332538604736,5.832418918609619,0.375,0.375,9.999999747378752e-06
0.7393616437911987,4.496108531951904,0.586776852607727,0.4965035021305084,0.5833332538604736,5.814361572265625,0.375,0.375,9.999999747378752e-06
0.7393616437911987,4.455987453460693,0.5916666388511658,0.4965035021305084,0.5833332538604736,5.790069580078125,0.375,0.375,9.999999747378752e-06
0.737400472164154,4.414564609527588,0.5916666388511658,0.4965035021305084,0.5833332538604736,5.7687249183654785,0.375,0.375,9.999999747378752e-06
0.737400472164154,4.381081581115723,0.5966386795043945,0.4965035021305084,0.5833332538604736,5.743770599365234,0.375,0.375,9.999999747378752e-06
0.737400472164154,4.346972465515137,0.5966386795043945,0.4965035021305084,0.5833332538604736,5.724971771240234,0.3333333432674408,0.375,9.999999747378752e-06
0.737400472164154,4.303801536560059,0.6016949415206909,0.4965035021305084,0.5833332538604736,5.699179649353027,0.25,0.25,9.999999747378752e-06
0.737400472164154,4.2719407081604,0.6034482717514038,0.4895104765892029,0.5833332538604736,5.679091453552246,0.25,0.25,9.999999747378752e-06
0.737400472164154,4.2345733642578125,0.6016949415206909,0.4965035021305084,0.5833332538604736,5.655648708343506,0.25,0.25,9.999999747378752e-06
0.737400472164154,4.200186252593994,0.6016949415206909,0.4965035021305084,0.5833332538604736,5.637740612030029,0.25,0.25,9.999999747378752e-06
0.737400472164154,4.163267135620117,0.6065573692321777,0.5174825191497803,0.6399999856948853,5.6138386726379395,0.25,0.25,9.999999747378752e-06
0.737400472164154,4.128339767456055,0.6065573692321777,0.5174825191497803,0.6399999856948853,5.593029022216797,0.25,0.25,9.999999747378752e-06
0.7407406568527222,4.096278190612793,0.6115702390670776,0.5174825191497803,0.6399999856948853,5.573288917541504,0.25,0.25,9.999999747378752e-06
0.7407406568527222,4.072102069854736,0.6134454011917114,0.5104895234107971,0.6399999856948853,5.555109977722168,0.25,0.25,9.999999747378752e-06
0.7407406568527222,4.03578519821167,0.6134454011917114,0.5104895234107971,0.6399999856948853,5.533963203430176,0.25,0.25,9.999999747378752e-06
0.7407406568527222,3.995983600616455,0.6134454011917114,0.5104895234107971,0.6399999856948853,5.514679908752441,0.25,0.25,9.999999747378752e-06
0.7407406568527222,3.965009927749634,0.6218487620353699,0.5174825191497803,0.6399999856948853,5.493663787841797,0.25,0.25,9.999999747378752e-06
0.7407406568527222,3.9311418533325195,0.6218487620353699,0.5174825191497803,0.6399999856948853,5.470134735107422,0.25,0.25,9.999999747378752e-06
0.7407406568527222,3.912132740020752,0.6186440587043762,0.5104895234107971,0.6399999856948853,5.454337120056152,0.25,0.25,9.999999747378752e-06
0.7407406568527222,3.8702661991119385,0.6218487620353699,0.5174825191497803,0.6399999856948853,5.4362921714782715,0.25,0.25,9.999999747378752e-06
0.7440633177757263,3.839454412460327,0.625,0.5244755148887634,0.6399999856948853,5.414432048797607,0.25,0.25,9.999999747378752e-06
0.7440633177757263,3.8119492530822754,0.625,0.5244755148887634,0.6399999856948853,5.396212100982666,0.25,0.25,9.999999747378752e-06
0.7440633177757263,3.7832038402557373,0.6302521228790283,0.5244755148887634,0.6399999856948853,5.376049995422363,0.25,0.25,9.999999747378752e-06
0.7440633177757263,3.7518789768218994,0.6333333253860474,0.5314685106277466,0.6399999856948853,5.355865478515625,0.25,0.25,9.999999747378752e-06
0.7440633177757263,3.7253785133361816,0.6386554837226868,0.5314685106277466,0.6399999856948853,5.339488506317139,0.25,0.25,9.999999747378752e-06
0.7440633177757263,3.7001118659973145,0.6386554837226868,0.5314685106277466,0.6399999856948853,5.319313049316406,0.25,0.25,9.999999747378752e-06
0.7440633177757263,3.6688458919525146,0.6386554837226868,0.5314685106277466,0.6399999856948853,5.297682285308838,0.25,0.25,9.999999747378752e-06
0.7440633177757263,3.641331911087036,0.6440678238868713,0.5314685106277466,0.6399999856948853,5.278247356414795,0.25,0.25,9.999999747378752e-06
0.7440633177757263,3.611814260482788,0.6440678238868713,0.5314685106277466,0.6399999856948853,5.262714385986328,0.25,0.25,9.999999747378752e-06
0.7440633177757263,3.5860631465911865,0.6440678238868713,0.5314685106277466,0.6399999856948853,5.2421650886535645,0.25,0.25,9.999999747378752e-06
0.7440633177757263,3.5616183280944824,0.6440678238868713,0.5314685106277466,0.6399999856948853,5.220119476318359,0.25,0.25,9.999999747378752e-06
0.7440633177757263,3.5337955951690674,0.6495726704597473,0.5314685106277466,0.6399999856948853,5.203511714935303,0.25,0.25,9.999999747378752e-06
0.7440633177757263,3.503894090652466,0.6440678238868713,0.5314685106277466,0.6399999856948853,5.1866559982299805,0.25,0.25,9.999999747378752e-06
0.7440633177757263,3.480738878250122,0.6440678238868713,0.5314685106277466,0.6399999856948853,5.171058177947998,0.25,0.25,9.999999747378752e-06
0.7440633177757263,3.454981803894043,0.6495726704597473,0.5314685106277466,0.6399999856948853,5.150848865509033,0.25,0.25,9.999999747378752e-06
0.7440633177757263,3.4269344806671143,0.6495726704597473,0.5314685106277466,0.6399999856948853,5.133197784423828,0.25,0.25,9.999999747378752e-06
0.7440633177757263,3.400155544281006,0.6554622054100037,0.5454545617103577,0.6399999856948853,5.11135196685791,0.25,0.25,9.999999747378752e-06
0.7440633177757263,3.378213405609131,0.6583333611488342,0.5524475574493408,0.6399999856948853,5.093073844909668,0.25,0.25,9.999999747378752e-06
0.7440633177757263,3.34997296333313,0.6525423526763916,0.5384615659713745,0.6399999856948853,5.075200080871582,0.25,0.25,9.999999747378752e-06
0.7440633177757263,3.325836658477783,0.6554622054100037,0.5454545617103577,0.6399999856948853,5.055259704589844,0.25,0.25,9.999999747378752e-06
0.7440633177757263,3.3039066791534424,0.6525423526763916,0.5384615659713745,0.6399999856948853,5.0404534339904785,0.25,0.25,9.999999747378752e-06
0.7440633177757263,3.277580976486206,0.6525423526763916,0.5384615659713745,0.6399999856948853,5.020114421844482,0.25,0.25,9.999999747378752e-06
0.7440633177757263,3.2561933994293213,0.6557376980781555,0.559440553188324,0.6399999856948853,5.004262447357178,0.25,0.25,9.999999747378752e-06
0.7440633177757263,3.230421304702759,0.6585366129875183,0.5664335489273071,0.6399999856948853,4.984589576721191,0.25,0.25,9.999999747378752e-06
0.7440633177757263,3.2054762840270996,0.6557376980781555,0.559440553188324,0.6399999856948853,4.9663519859313965,0.25,0.25,9.999999747378752e-06
0.7440633177757263,3.178635597229004,0.6528925895690918,0.5524475574493408,0.6399999856948853,4.949950218200684,0.25,0.25,9.999999747378752e-06
0.7440633177757263,3.1553914546966553,0.6557376980781555,0.559440553188324,0.6399999856948853,4.930542469024658,0.25,0.25,9.999999747378752e-06
0.7440633177757263,3.1307003498077393,0.6585366129875183,0.5664335489273071,0.6399999856948853,4.914527893066406,0.25,0.25,9.999999747378752e-06
0.7440633177757263,3.1106302738189697,0.6557376980781555,0.559440553188324,0.6399999856948853,4.895176410675049,0.25,0.25,9.999999747378752e-06
0.7440633177757263,3.084963798522949,0.6611570119857788,0.559440553188324,0.6399999856948853,4.880214214324951,0.25,0.25,9.999999747378752e-06
0.7440633177757263,3.067408800125122,0.6585366129875183,0.5664335489273071,0.6399999856948853,4.863256454467773,0.25,0.25,9.999999747378752e-06
0.7440633177757263,3.040245532989502,0.6639999747276306,0.5804196000099182,0.6399999856948853,4.845069408416748,0.25,0.25,9.999999747378752e-06
0.7440633177757263,3.0208137035369873,0.6639344096183777,0.5664335489273071,0.6399999856948853,4.827824592590332,0.25,0.25,9.999999747378752e-06
0.7440633177757263,2.99523663520813,0.6694214940071106,0.5664335489273071,0.6399999856948853,4.810364246368408,0.25,0.25,9.999999747378752e-06
0.7440633177757263,2.9711828231811523,0.6639999747276306,0.5804196000099182,0.6399999856948853,4.792983531951904,0.25,0.25,9.999999747378752e-06
0.7440633177757263,2.9498374462127686,0.6639999747276306,0.5804196000099182,0.6399999856948853,4.774117946624756,0.25,0.25,9.999999747378752e-06
0.7440633177757263,2.9289283752441406,0.6693548560142517,0.5804196000099182,0.6399999856948853,4.761491775512695,0.25,0.25,9.999999747378752e-06
0.7440633177757263,2.9105145931243896,0.6692913174629211,0.5944055914878845,0.6399999856948853,4.744015693664551,0.25,0.25,9.999999747378752e-06
0.7440633177757263,2.883612871170044,0.6692913174629211,0.5944055914878845,0.6399999856948853,4.727472305297852,0.25,0.25,9.999999747378752e-06
0.7440633177757263,2.865009069442749,0.671999990940094,0.5874125957489014,0.6399999856948853,4.708982944488525,0.25,0.25,9.999999747378752e-06
0.7440633177757263,2.842289447784424,0.6746031641960144,0.5944055914878845,0.6399999856948853,4.694834232330322,0.25,0.25,9.999999747378752e-06
0.7440633177757263,2.8292744159698486,0.6747967600822449,0.5804196000099182,0.6399999856948853,4.680755138397217,0.25,0.25,9.999999747378752e-06
0.7440633177757263,2.7993836402893066,0.6771653294563293,0.6013985872268677,0.6399999856948853,4.664618968963623,0.25,0.25,9.999999747378752e-06
0.7440633177757263,2.7820305824279785,0.6796875,0.6083915829658508,0.6399999856948853,4.651093006134033,0.25,0.25,9.999999747378752e-06
0.7440633177757263,2.764147996902466,0.6796875,0.6083915829658508,0.6399999856948853,4.635244846343994,0.25,0.25,9.999999747378752e-06
0.7440633177757263,2.743102788925171,0.6771653294563293,0.6013985872268677,0.6399999856948853,4.6225385665893555,0.25,0.25,9.999999747378752e-06
0.7440633177757263,2.7266297340393066,0.6771653294563293,0.6013985872268677,0.6399999856948853,4.607893943786621,0.25,0.25,9.999999747378752e-06
0.7440633177757263,2.699802875518799,0.6771653294563293,0.6013985872268677,0.6399999856948853,4.590095520019531,0.25,0.25,9.999999747378752e-06
0.7440633177757263,2.681197166442871,0.6771653294563293,0.6013985872268677,0.6399999856948853,4.574254035949707,0.25,0.25,9.999999747378752e-06
0.7440633177757263,2.6623950004577637,0.6796875,0.6083915829658508,0.6399999856948853,4.560400485992432,0.25,0.25,9.999999747378752e-06
0.7440633177757263,2.6449546813964844,0.6796875,0.6083915829658508,0.6399999856948853,4.547794818878174,0.25,0.25,9.999999747378752e-06
0.7440633177757263,2.6253716945648193,0.6771653294563293,0.6013985872268677,0.6399999856948853,4.529938697814941,0.25,0.25,9.999999747378752e-06
0.7473683953285217,2.6084799766540527,0.682170569896698,0.6153846383094788,0.6399999856948853,4.519207000732422,0.25,0.25,9.999999747378752e-06
0.7473683953285217,2.5855956077575684,0.6796875,0.6083915829658508,0.6399999856948853,4.503800868988037,0.25,0.25,9.999999747378752e-06
0.7440633177757263,2.572235107421875,0.6800000071525574,0.5944055914878845,0.6399999856948853,4.491058349609375,0.25,0.25,9.999999747378752e-06
0.7473683953285217,2.5483744144439697,0.682539701461792,0.6013985872268677,0.6399999856948853,4.475973129272461,0.25,0.25,9.999999747378752e-06
0.7454068660736084,2.5340168476104736,0.6769230961799622,0.6153846383094788,0.6399999856948853,4.461162090301514,0.25,0.25,9.999999747378752e-06
0.7454068660736084,2.5162274837493896,0.682539701461792,0.6013985872268677,0.6399999856948853,4.448488235473633,0.25,0.25,9.999999747378752e-06
0.7454068660736084,2.4928159713745117,0.682170569896698,0.6153846383094788,0.6399999856948853,4.434719562530518,0.25,0.25,9.999999747378752e-06
0.7473683953285217,2.4798855781555176,0.682170569896698,0.6153846383094788,0.6399999856948853,4.421070098876953,0.25,0.25,9.999999747378752e-06
0.7454068660736084,2.4577698707580566,0.6870229244232178,0.6293706297874451,0.6399999856948853,4.406612396240234,0.25,0.25,9.999999747378752e-06
0.7454068660736084,2.4387614727020264,0.682170569896698,0.6153846383094788,0.6399999856948853,4.395333290100098,0.25,0.25,9.999999747378752e-06
0.7454068660736084,2.4219748973846436,0.682170569896698,0.6153846383094788,0.6399999856948853,4.380525588989258,0.25,0.25,9.999999747378752e-06
0.7454068660736084,2.414494276046753,0.6818181872367859,0.6293706297874451,0.6399999856948853,4.3686676025390625,0.25,0.25,9.999999747378752e-06
0.7454068660736084,2.391641139984131,0.6818181872367859,0.6293706297874451,0.6399999856948853,4.356813907623291,0.25,0.25,9.999999747378752e-06
0.7454068660736084,2.3724801540374756,0.6796875,0.6083915829658508,0.6399999856948853,4.34537410736084,0.25,0.25,9.999999747378752e-06
0.7454068660736084,2.3506765365600586,0.682170569896698,0.6153846383094788,0.6399999856948853,4.329277038574219,0.25,0.25,9.999999747378752e-06
0.7454068660736084,2.3349058628082275,0.6793892979621887,0.6223776340484619,0.6399999856948853,4.3169941902160645,0.25,0.25,9.999999747378752e-06
0.7454068660736084,2.3162994384765625,0.6793892979621887,0.6223776340484619,0.6399999856948853,4.304358005523682,0.25,0.25,9.999999747378752e-06
0.7454068660736084,2.3025877475738525,0.6842105388641357,0.6363636255264282,0.6399999856948853,4.291492462158203,0.25,0.25,9.999999747378752e-06
0.7454068660736084,2.2819902896881104,0.6865671873092651,0.6433566212654114,0.6399999856948853,4.278929710388184,0.25,0.25,9.999999747378752e-06
0.7454068660736084,2.2680118083953857,0.682170569896698,0.6153846383094788,0.6399999856948853,4.264951705932617,0.25,0.25,9.999999747378752e-06
0.7454068660736084,2.249948740005493,0.6793892979621887,0.6223776340484619,0.6399999856948853,4.255371570587158,0.25,0.25,9.999999747378752e-06
0.7486910223960876,2.2364537715911865,0.6842105388641357,0.6363636255264282,0.6399999856948853,4.244804382324219,0.25,0.25,9.999999747378752e-06
0.7486910223960876,2.215444326400757,0.6769230961799622,0.6153846383094788,0.6399999856948853,4.230745315551758,0.25,0.25,9.999999747378752e-06
0.7486910223960876,2.2011141777038574,0.6769230961799622,0.6153846383094788,0.6399999856948853,4.218236923217773,0.25,0.25,9.999999747378752e-06
0.7486910223960876,2.185802459716797,0.682170569896698,0.6153846383094788,0.6399999856948853,4.205321311950684,0.25,0.25,9.999999747378752e-06
0.7486910223960876,2.165886402130127,0.6846153736114502,0.6223776340484619,0.6399999856948853,4.19796895980835,0.25,0.25,9.999999747378752e-06
0.7486910223960876,2.154014825820923,0.6838235259056091,0.6503496766090393,0.6399999856948853,4.18710470199585,0.25,0.25,9.999999747378752e-06
0.7486910223960876,2.139847755432129,0.694656491279602,0.6363636255264282,0.6399999856948853,4.175357818603516,0.25,0.25,9.999999747378752e-06
0.7486910223960876,2.1184651851654053,0.692307710647583,0.6293706297874451,0.6399999856948853,4.163292407989502,0.25,0.25,9.999999747378752e-06
0.7486910223960876,2.102217674255371,0.692307710647583,0.6293706297874451,0.6399999856948853,4.154888153076172,0.25,0.25,9.999999747378752e-06
0.7486910223960876,2.0935723781585693,0.6888889074325562,0.6503496766090393,0.6399999856948853,4.149142265319824,0.25,0.25,9.999999747378752e-06
0.7486910223960876,2.077179431915283,0.6962962746620178,0.6573426723480225,0.6399999856948853,4.129084587097168,0.25,0.25,9.999999747378752e-06
0.7486910223960876,2.056912899017334,0.7014925479888916,0.6573426723480225,0.6399999856948853,4.123411655426025,0.25,0.25,9.999999747378752e-06
0.7486910223960876,2.045156240463257,0.694656491279602,0.6363636255264282,0.6399999856948853,4.108598232269287,0.25,0.25,9.999999747378752e-06
0.7486910223960876,2.026087760925293,0.6969696879386902,0.6433566212654114,0.6399999856948853,4.10060453414917,0.25,0.25,9.999999747378752e-06
0.7486910223960876,2.010660409927368,0.6992481350898743,0.6503496766090393,0.6399999856948853,4.087267875671387,0.25,0.25,9.999999747378752e-06
0.7486910223960876,1.9940400123596191,0.7022900581359863,0.6433566212654114,0.6399999856948853,4.077979564666748,0.25,0.25,9.999999747378752e-06
0.7486910223960876,1.979249358177185,0.7045454382896423,0.6503496766090393,0.6399999856948853,4.067943096160889,0.25,0.25,9.999999747378752e-06
0.7486910223960876,1.9679203033447266,0.7014925479888916,0.6573426723480225,0.6399999856948853,4.0600666999816895,0.25,0.25,9.999999747378752e-06
0.7486910223960876,1.9500724077224731,0.7037037014961243,0.6643356680870056,0.6399999856948853,4.048821449279785,0.25,0.25,9.999999747378752e-06
0.7486910223960876,1.9385265111923218,0.7067669034004211,0.6573426723480225,0.6399999856948853,4.041762351989746,0.25,0.25,9.999999747378752e-06
0.7486910223960876,1.924570918083191,0.7109375,0.6363636255264282,0.6399999856948853,4.027530193328857,0.2857142984867096,0.25,9.999999747378752e-06
0.7486910223960876,1.9152038097381592,0.7089552283287048,0.6643356680870056,0.6399999856948853,4.024839878082275,0.3333333432674408,0.375,9.999999747378752e-06
0.7486910223960876,1.8917433023452759,0.7175572514533997,0.6573426723480225,0.6399999856948853,4.007361888885498,0.2857142984867096,0.25,9.999999747378752e-06
0.7486910223960876,1.87934148311615,0.7230769395828247,0.6573426723480225,0.6399999856948853,4.005777835845947,0.3333333432674408,0.375,9.999999747378752e-06
0.7486910223960876,1.8651748895645142,0.7286821603775024,0.6573426723480225,0.6399999856948853,3.9943344593048096,0.2857142984867096,0.25,9.999999747378752e-06
0.7486910223960876,1.8493026494979858,0.7286821603775024,0.6573426723480225,0.6399999856948853,3.982938051223755,0.375,0.375,9.999999747378752e-06
0.7486910223960876,1.834722638130188,0.7175572514533997,0.6573426723480225,0.6399999856948853,3.985849380493164,0.4000000059604645,0.5,9.999999747378752e-06
0.7486910223960876,1.8209596872329712,0.7259259223937988,0.6853147149085999,0.6399999856948853,3.9758529663085938,0.4444444477558136,0.5,9.999999747378752e-06
0.7486910223960876,1.808348536491394,0.7313432693481445,0.6853147149085999,0.6399999856948853,3.9623382091522217,0.4444444477558136,0.5,9.999999747378752e-06
0.7486910223960876,1.796997308731079,0.7293233275413513,0.6783216595649719,0.6399999856948853,3.961122512817383,0.4444444477558136,0.5,9.999999747378752e-06
0.7486910223960876,1.7805923223495483,0.7279411554336548,0.692307710647583,0.6399999856948853,3.95586895942688,0.4444444477558136,0.5,9.999999747378752e-06
0.7486910223960876,1.7655761241912842,0.7279411554336548,0.692307710647583,0.6399999856948853,3.9428625106811523,0.4444444477558136,0.5,9.999999747378752e-06
0.7486910223960876,1.7545182704925537,0.7348484992980957,0.6783216595649719,0.6399999856948853,3.9303324222564697,0.4444444477558136,0.5,9.999999747378752e-06
0.7486910223960876,1.743747591972351,0.738095223903656,0.6503496766090393,0.6399999856948853,3.9204955101013184,0.4444444477558136,0.5,9.999999747378752e-06
0.7486910223960876,1.7310501337051392,0.7259259223937988,0.6853147149085999,0.6399999856948853,3.9342880249023438,0.4000000059604645,0.5,9.999999747378752e-06
0.7486910223960876,1.7149914503097534,0.7352941036224365,0.6993007063865662,0.6399999856948853,3.9188196659088135,0.4444444477558136,0.5,9.999999747378752e-06
0.7486910223960876,1.705322504043579,0.7441860437393188,0.6713286638259888,0.6399999856948853,3.9016764163970947,0.4444444477558136,0.5,9.999999747378752e-06
0.7486910223960876,1.6928755044937134,0.75,0.6713286638259888,0.6399999856948853,3.9107046127319336,0.4000000059604645,0.5,9.999999747378752e-06
0.7486910223960876,1.6764051914215088,0.746268630027771,0.6993007063865662,0.6399999856948853,3.9060614109039307,0.4000000059604645,0.5,9.999999747378752e-06
0.7486910223960876,1.666045069694519,0.746268630027771,0.6993007063865662,0.6399999856948853,3.9009039402008057,0.4000000059604645,0.5,9.999999747378752e-06
0.7486910223960876,1.65191650390625,0.746268630027771,0.6993007063865662,0.6399999856948853,3.8969461917877197,0.4000000059604645,0.5,9.999999747378752e-06
0.7486910223960876,1.6392031908035278,0.746268630027771,0.6993007063865662,0.6399999856948853,3.889512538909912,0.4000000059604645,0.5,9.999999747378752e-06
0.7486910223960876,1.6282939910888672,0.746268630027771,0.6993007063865662,0.6399999856948853,3.890530824661255,0.4000000059604645,0.5,9.999999747378752e-06
0.7486910223960876,1.6209359169006348,0.75,0.692307710647583,0.6399999856948853,3.8609466552734375,0.4000000059604645,0.5,9.999999747378752e-06
0.7486910223960876,1.605291485786438,0.7578125,0.6783216595649719,0.6399999856948853,3.8673222064971924,0.4000000059604645,0.5,9.999999747378752e-06
0.7486910223960876,1.5922120809555054,0.7443609237670898,0.692307710647583,0.6399999856948853,3.8786935806274414,0.4000000059604645,0.5,9.999999747378752e-06
0.7486910223960876,1.578113079071045,0.7443609237670898,0.692307710647583,0.6399999856948853,3.86474347114563,0.4000000059604645,0.5,9.999999747378752e-06
0.7486910223960876,1.5721919536590576,0.7481481432914734,0.7062937021255493,0.6399999856948853,3.8751471042633057,0.4000000059604645,0.5,9.999999747378752e-06
0.7486910223960876,1.555802583694458,0.7443609237670898,0.692307710647583,0.6399999856948853,3.854483127593994,0.4000000059604645,0.5,9.999999747378752e-06
0.7486910223960876,1.5426360368728638,0.7596899271011353,0.6853147149085999,0.6399999856948853,3.8392207622528076,0.4000000059604645,0.5,9.999999747378752e-06
0.7486910223960876,1.5333226919174194,0.7596899271011353,0.6853147149085999,0.6399999856948853,3.84824275970459,0.4000000059604645,0.5,9.999999747378752e-06
0.7486910223960876,1.5201051235198975,0.7596899271011353,0.6853147149085999,0.6399999856948853,3.83597469329834,0.4000000059604645,0.5,9.999999747378752e-06
0.7486910223960876,1.5098387002944946,0.7596899271011353,0.6853147149085999,0.6399999856948853,3.8397216796875,0.4000000059604645,0.5,9.999999747378752e-06
0.7467362880706787,1.4974513053894043,0.7596899271011353,0.6853147149085999,0.6399999856948853,3.846184730529785,0.4000000059604645,0.5,9.999999747378752e-06
0.7467362880706787,1.4847869873046875,0.7538461685180664,0.6853147149085999,0.6399999856948853,3.8412628173828125,0.4000000059604645,0.5,9.999999747378752e-06
0.7467362880706787,1.4759875535964966,0.7443609237670898,0.692307710647583,0.6399999856948853,3.837451696395874,0.4000000059604645,0.5,9.999999747378752e-06
0.7467362880706787,1.4628474712371826,0.7596899271011353,0.6853147149085999,0.6399999856948853,3.831144332885742,0.4000000059604645,0.5,9.999999747378752e-06
0.7467362880706787,1.4581619501113892,0.7538461685180664,0.6853147149085999,0.6399999856948853,3.8182215690612793,0.4000000059604645,0.5,9.999999747378752e-06
0.7467362880706787,1.4428313970565796,0.7633587718009949,0.6993007063865662,0.6399999856948853,3.8402278423309326,0.4000000059604645,0.5,9.999999747378752e-06
0.7467362880706787,1.44579017162323,0.7633587718009949,0.6993007063865662,0.6399999856948853,3.8069803714752197,0.4000000059604645,0.5,9.999999747378752e-06
0.7467362880706787,1.4190722703933716,0.7615384459495544,0.692307710647583,0.6399999856948853,3.835026502609253,0.4000000059604645,0.5,9.999999747378752e-06
0.7467362880706787,1.408406138420105,0.753731369972229,0.7062937021255493,0.6399999856948853,3.8264541625976562,0.4000000059604645,0.5,9.999999747378752e-06
0.7467362880706787,1.4034724235534668,0.7633587718009949,0.6993007063865662,0.6399999856948853,3.807074546813965,0.4000000059604645,0.5,9.999999747378752e-06
0.7467362880706787,1.3879181146621704,0.7575757503509521,0.6993007063865662,0.6399999856948853,3.827563524246216,0.4000000059604645,0.5,9.999999747378752e-06
0.7467362880706787,1.3778332471847534,0.7555555701255798,0.7132866978645325,0.6399999856948853,3.8241190910339355,0.4000000059604645,0.5,9.999999747378752e-06
0.7467362880706787,1.3670061826705933,0.7651515007019043,0.7062937021255493,0.6399999856948853,3.8121047019958496,0.4000000059604645,0.5,9.999999747378752e-06
0.7467362880706787,1.3567242622375488,0.7651515007019043,0.7062937021255493,0.6399999856948853,3.8092215061187744,0.4000000059604645,0.5,9.999999747378752e-06
0.7467362880706787,1.3457201719284058,0.7651515007019043,0.7062937021255493,0.6399999856948853,3.8153951168060303,0.4000000059604645,0.5,9.999999747378752e-06
0.7467362880706787,1.3422831296920776,0.7615384459495544,0.692307710647583,0.6399999856948853,3.793722629547119,0.4000000059604645,0.5,9.999999747378752e-06
0.7467362880706787,1.3289753198623657,0.7669172883033752,0.7132866978645325,0.6399999856948853,3.809736728668213,0.4000000059604645,0.5,9.999999747378752e-06
0.7467362880706787,1.3202121257781982,0.7669172883033752,0.7132866978645325,0.6399999856948853,3.796610116958618,0.4000000059604645,0.5,9.999999747378752e-06
0.7467362880706787,1.3103225231170654,0.7686567306518555,0.7202796936035156,0.6399999856948853,3.8136861324310303,0.4000000059604645,0.5,9.999999747378752e-06
0.7467362880706787,1.302626371383667,0.7669172883033752,0.7132866978645325,0.6399999856948853,3.8145620822906494,0.4000000059604645,0.5,9.999999747378752e-06
0.7467362880706787,1.2917826175689697,0.7669172883033752,0.7132866978645325,0.6399999856948853,3.7829742431640625,0.4000000059604645,0.5,9.999999747378752e-06
0.7467362880706787,1.280511736869812,0.7669172883033752,0.7132866978645325,0.6399999856948853,3.8077707290649414,0.4000000059604645,0.5,9.999999747378752e-06
0.7467362880706787,1.2712441682815552,0.7629629373550415,0.7202796936035156,0.6399999856948853,3.810729503631592,0.4000000059604645,0.5,9.999999747378752e-06
0.7467362880706787,1.2636864185333252,0.7669172883033752,0.7132866978645325,0.6399999856948853,3.7843399047851562,0.4000000059604645,0.5,9.999999747378752e-06
0.7467362880706787,1.2535152435302734,0.7669172883033752,0.7132866978645325,0.6399999856948853,3.7934439182281494,0.4000000059604645,0.5,9.999999747378752e-06
0.7467362880706787,1.2481621503829956,0.7686567306518555,0.7202796936035156,0.6399999856948853,3.8069705963134766,0.4000000059604645,0.5,9.999999747378752e-06
0.7467362880706787,1.236337423324585,0.7669172883033752,0.7132866978645325,0.6399999856948853,3.7925944328308105,0.4000000059604645,0.5,9.999999747378752e-06
0.7467362880706787,1.2278788089752197,0.7669172883033752,0.7132866978645325,0.6399999856948853,3.7846200466156006,0.4000000059604645,0.5,9.999999747378752e-06
0.7467362880706787,1.2204619646072388,0.7669172883033752,0.7132866978645325,0.6399999856948853,3.780550003051758,0.4000000059604645,0.5,9.999999747378752e-06
0.7467362880706787,1.211944341659546,0.7686567306518555,0.7202796936035156,0.6399999856948853,3.7928452491760254,0.4000000059604645,0.5,9.999999747378752e-06
0.7467362880706787,1.2082514762878418,0.760869562625885,0.7342657446861267,0.6399999856948853,3.8114287853240967,0.4000000059604645,0.5,9.999999747378752e-06
0.7467362880706787,1.1952937841415405,0.770370364189148,0.7272727489471436,0.6399999856948853,3.7970824241638184,0.4000000059604645,0.5,9.999999747378752e-06
0.7467362880706787,1.1935049295425415,0.7803030014038086,0.7202796936035156,0.6399999856948853,3.765655994415283,0.4444444477558136,0.5,9.999999747378752e-06
0.7467362880706787,1.180051326751709,0.7803030014038086,0.7202796936035156,0.6399999856948853,3.790863513946533,0.4000000059604645,0.5,9.999999747378752e-06
0.7467362880706787,1.1773267984390259,0.7720588445663452,0.7342657446861267,0.6399999856948853,3.793499231338501,0.4000000059604645,0.5,9.999999747378752e-06
0.7467362880706787,1.1655546426773071,0.7761194109916687,0.7272727489471436,0.6399999856948853,3.7843682765960693,0.4000000059604645,0.5,9.999999747378752e-06
0.7467362880706787,1.1605175733566284,0.7761194109916687,0.7272727489471436,0.6399999856948853,3.770674228668213,0.4000000059604645,0.5,9.999999747378752e-06
0.7467362880706787,1.1506701707839966,0.7862595319747925,0.7202796936035156,0.6399999856948853,3.779723644256592,0.4000000059604645,0.5,9.999999747378752e-06
0.7467362880706787,1.1446038484573364,0.7878788113594055,0.7272727489471436,0.6399999856948853,3.7803330421447754,0.4000000059604645,0.5,9.999999747378752e-06
0.7467362880706787,1.1372034549713135,0.7878788113594055,0.7272727489471436,0.6399999856948853,3.773411989212036,0.4000000059604645,0.5,9.999999747378752e-06
0.7467362880706787,1.1289726495742798,0.7878788113594055,0.7272727489471436,0.6399999856948853,3.777010202407837,0.4000000059604645,0.5,9.999999747378752e-06
0.7467362880706787,1.1235138177871704,0.7910447716712952,0.7412587404251099,0.6399999856948853,3.790057420730591,0.4000000059604645,0.5,9.999999747378752e-06
0.7467362880706787,1.1151221990585327,0.7910447716712952,0.7412587404251099,0.6399999856948853,3.773449182510376,0.4000000059604645,0.5,9.999999747378752e-06
0.7467362880706787,1.1103341579437256,0.7910447716712952,0.7412587404251099,0.6399999856948853,3.782114028930664,0.4000000059604645,0.5,9.999999747378752e-06
0.7467362880706787,1.1016334295272827,0.7894737124443054,0.7342657446861267,0.6399999856948853,3.766819715499878,0.4000000059604645,0.5,9.999999747378752e-06
0.7467362880706787,1.0951794385910034,0.7894737124443054,0.7342657446861267,0.6399999856948853,3.7650558948516846,0.4000000059604645,0.5,9.999999747378752e-06
0.7467362880706787,1.0899358987808228,0.7894737124443054,0.7342657446861267,0.6399999856948853,3.7698943614959717,0.4000000059604645,0.5,9.999999747378752e-06
0.7467362880706787,1.0823484659194946,0.7910447716712952,0.7412587404251099,0.6399999856948853,3.764747142791748,0.4000000059604645,0.5,9.999999747378752e-06
0.7467362880706787,1.0793590545654297,0.7925925850868225,0.748251736164093,0.6399999856948853,3.7794015407562256,0.4000000059604645,0.5,9.999999747378752e-06
0.7467362880706787,1.0700337886810303,0.7910447716712952,0.7412587404251099,0.6399999856948853,3.7488608360290527,0.4444444477558136,0.5,9.999999747378752e-06
0.7467362880706787,1.0625555515289307,0.7910447716712952,0.7412587404251099,0.6399999856948853,3.7604732513427734,0.4000000059604645,0.5,9.999999747378752e-06
0.7467362880706787,1.0561332702636719,0.807692289352417,0.7342657446861267,0.6399999856948853,3.7553577423095703,0.4000000059604645,0.5,9.999999747378752e-06
0.7467362880706787,1.0487935543060303,0.7969924807548523,0.7412587404251099,0.6399999856948853,3.7586212158203125,0.4000000059604645,0.5,9.999999747378752e-06
0.7467362880706787,1.0436978340148926,0.8091602921485901,0.7412587404251099,0.6399999856948853,3.7524242401123047,0.4000000059604645,0.5,9.999999747378752e-06
0.7467362880706787,1.0371387004852295,0.7910447716712952,0.7412587404251099,0.6399999856948853,3.769115686416626,0.4000000059604645,0.5,9.999999747378752e-06
0.7467362880706787,1.030565619468689,0.7985074520111084,0.748251736164093,0.6399999856948853,3.7587332725524902,0.4000000059604645,0.5,9.999999747378752e-06
0.7467362880706787,1.029422402381897,0.807692289352417,0.7342657446861267,0.6399999856948853,3.7335944175720215,0.4444444477558136,0.5,9.999999747378752e-06
0.7467362880706787,1.019827961921692,0.8045112490653992,0.748251736164093,0.6399999856948853,3.765166759490967,0.4000000059604645,0.5,9.999999747378752e-06
0.7467362880706787,1.0134738683700562,0.7969924807548523,0.7412587404251099,0.6399999856948853,3.7436068058013916,0.4000000059604645,0.5,9.999999747378752e-06
0.7467362880706787,1.004848599433899,0.8045112490653992,0.748251736164093,0.6399999856948853,3.747333526611328,0.4000000059604645,0.5,9.999999747378752e-06
0.7467362880706787,0.9999618530273438,0.8167939186096191,0.748251736164093,0.6399999856948853,3.740023612976074,0.4000000059604645,0.5,9.999999747378752e-06
0.7467362880706787,0.9941719770431519,0.8045112490653992,0.748251736164093,0.6399999856948853,3.743891954421997,0.4000000059604645,0.5,9.999999747378752e-06
0.7467362880706787,0.9886537194252014,0.8167939186096191,0.748251736164093,0.6399999856948853,3.7234036922454834,0.4444444477558136,0.5,9.999999747378752e-06
0.7467362880706787,0.9834954738616943,0.810606062412262,0.748251736164093,0.6399999856948853,3.7485296726226807,0.4000000059604645,0.5,9.999999747378752e-06
0.7467362880706787,0.977471649646759,0.810606062412262,0.748251736164093,0.6399999856948853,3.7207674980163574,0.4000000059604645,0.5,9.999999747378752e-06
0.7467362880706787,0.9696594476699829,0.8230769038200378,0.748251736164093,0.6399999856948853,3.723808526992798,0.4000000059604645,0.5,9.999999747378752e-06
0.7467362880706787,0.9634416699409485,0.8230769038200378,0.748251736164093,0.6399999856948853,3.721963882446289,0.4000000059604645,0.5,9.999999747378752e-06
0.7467362880706787,0.9590877890586853,0.8230769038200378,0.748251736164093,0.6399999856948853,3.7271568775177,0.4000000059604645,0.5,9.999999747378752e-06
0.7467362880706787,0.9523884057998657,0.8230769038200378,0.748251736164093,0.6399999856948853,3.721623420715332,0.4000000059604645,0.5,9.999999747378752e-06
0.7467362880706787,0.9469813704490662,0.8294573426246643,0.748251736164093,0.6399999856948853,3.700756311416626,0.4444444477558136,0.5,9.999999747378752e-06
0.7467362880706787,0.942099392414093,0.828125,0.7412587404251099,0.6399999856948853,3.707117795944214,0.4000000059604645,0.5,9.999999747378752e-06
0.7467362880706787,0.935990035533905,0.8294573426246643,0.748251736164093,0.6399999856948853,3.7144775390625,0.4000000059604645,0.5,9.999999747378752e-06
0.7467362880706787,0.9295699596405029,0.8294573426246643,0.748251736164093,0.6399999856948853,3.711117744445801,0.4000000059604645,0.5,9.999999747378752e-06
0.7467362880706787,0.9242284297943115,0.8294573426246643,0.748251736164093,0.6399999856948853,3.701620578765869,0.4000000059604645,0.5,9.999999747378752e-06
0.7467362880706787,0.9198538661003113,0.8294573426246643,0.748251736164093,0.6399999856948853,3.69242000579834,0.4444444477558136,0.5,9.999999747378752e-06
0.7467362880706787,0.9166814684867859,0.8307692408561707,0.7552447319030762,0.6399999856948853,3.7202951908111572,0.4000000059604645,0.5,9.999999747378752e-06
0.7467362880706787,0.9107978343963623,0.8307692408561707,0.7552447319030762,0.6399999856948853,3.689572811126709,0.4444444477558136,0.5,9.999999747378752e-06
0.7467362880706787,0.9053890109062195,0.828125,0.7412587404251099,0.6399999856948853,3.6902899742126465,0.4000000059604645,0.5,9.999999747378752e-06
0.7467362880706787,0.8991988897323608,0.8294573426246643,0.748251736164093,0.6399999856948853,3.674224376678467,0.4444444477558136,0.5,9.999999747378752e-06
0.7467362880706787,0.892207682132721,0.8307692408561707,0.7552447319030762,0.6399999856948853,3.693849563598633,0.4000000059604645,0.5,9.999999747378752e-06
0.7467362880706787,0.8886469006538391,0.8333333134651184,0.7692307829856873,0.6399999856948853,3.687997817993164,0.4000000059604645,0.5,9.999999747378752e-06
0.7467362880706787,0.8845803141593933,0.8294573426246643,0.748251736164093,0.6399999856948853,3.668001174926758,0.4444444477558136,0.5,9.999999747378752e-06
0.7467362880706787,0.87824946641922,0.8320610523223877,0.7622377872467041,0.6399999856948853,3.679563522338867,0.4000000059604645,0.5,9.999999747378752e-06
